% C0 (TOA Count Rate, /ms) for 4STAR VIS spectrometer (1044 channels) derived from (SEE ORIGINAL FILES FOR SOURCES) and recorded on 2014-07-17 17:53:13.
% Average of the 20130708, 20130709, 20130710, 20130711, 20130712 Langley C0, refined_Langley_at_MLO_screened_3.0x.
Pix Wavelength C0 C0err
0 173.18 -1.00000000e+000 0.00000000e+000 
1 173.97 2.02860928e+006 4.53539791e+006 
2 174.77 -1.86948151e+006 4.18211868e+006 
3 175.56 2.69932835e+006 6.03396919e+006 
4 176.36 6.28683592e+008 1.40555595e+009 
5 177.15 7.84639767e+008 1.75423600e+009 
6 177.94 9.95124112e+008 2.22485936e+009 
7 178.74 1.28542881e+009 2.87395536e+009 
8 179.53 1.58593695e+009 3.54585876e+009 
9 180.33 2.02098281e+009 4.51858333e+009 
10 181.12 2.45872509e+009 5.49733629e+009 
11 181.92 3.17792544e+009 7.10542534e+009 
12 182.71 3.99847487e+009 8.94011949e+009 
13 183.51 5.34397378e+009 1.19486229e+010 
14 184.30 6.71765061e+009 1.50201044e+010 
15 185.10 8.98245885e+009 2.00842710e+010 
16 185.89 1.26451429e+010 2.82741198e+010 
17 186.69 1.66224926e+010 3.71674934e+010 
18 187.49 2.23143605e+010 4.98945489e+010 
19 188.28 3.10294651e+010 6.93817184e+010 
20 189.08 4.27541884e+010 9.55988192e+010 
21 189.88 5.92842268e+010 1.32560606e+011 
22 190.67 8.23119779e+010 1.84051454e+011 
23 191.47 1.18950792e+011 2.65977440e+011 
24 192.27 1.68692359e+011 3.77201713e+011 
25 193.07 2.51458716e+011 5.62271353e+011 
26 193.86 3.80549593e+011 8.50925085e+011 
27 194.66 5.81763732e+011 1.30085066e+012 
28 195.46 8.74867705e+011 1.95624837e+012 
29 196.26 1.37804960e+012 3.08139181e+012 
30 197.05 2.21982557e+012 4.96365200e+012 
31 197.85 3.64924351e+012 8.15991689e+012 
32 198.65 5.44898814e+012 1.21842572e+013 
33 199.45 9.18113963e+012 2.05295936e+013 
34 200.25 1.65474602e+013 3.70011730e+013 
35 201.05 3.05600234e+013 6.83341913e+013 
36 201.85 5.79612047e+013 1.29605057e+014 
37 202.64 1.11718368e+014 2.49809659e+014 
38 203.44 2.18205708e+014 4.87922483e+014 
39 204.24 3.91718864e+014 8.75909510e+014 
40 205.04 8.70431420e+014 1.94634312e+015 
41 205.84 2.07424878e+015 4.63816005e+015 
42 206.64 5.08933333e+015 1.13800931e+016 
43 207.44 1.36237884e+016 3.04637130e+016 
44 208.24 3.82191981e+016 8.54607175e+016 
45 209.04 1.14844611e+017 2.56800342e+017 
46 209.84 3.53630826e+017 7.90742533e+017 
47 210.64 1.32814863e+018 2.96983054e+018 
48 211.44 4.97537262e+018 1.11252712e+019 
49 212.24 2.18883503e+019 4.89438389e+019 
50 213.05 1.14542563e+020 2.56124957e+020 
51 213.85 5.19541351e+020 1.16172978e+021 
52 214.65 2.11761004e+020 4.73511989e+020 
53 215.45 9.22768873e+019 2.06337342e+020 
54 216.25 4.77363321e+019 1.06741635e+020 
55 217.05 1.23530033e+019 2.76221359e+019 
56 217.85 3.23362398e+018 7.23059532e+018 
57 218.65 8.64282677e+017 1.93259176e+018 
58 219.46 2.23421533e+017 4.99584497e+017 
59 220.26 5.70246791e+016 1.27510571e+017 
60 221.06 1.49229654e+016 3.33685695e+016 
61 221.86 4.00814347e+015 8.96240247e+015 
62 222.66 1.05787691e+015 2.36545311e+015 
63 223.47 2.71018981e+014 6.06004340e+014 
64 224.27 7.12142615e+013 1.59234852e+014 
65 225.07 1.88622321e+013 4.21751824e+013 
66 225.87 4.87735685e+012 1.09052742e+013 
67 226.68 1.29788536e+012 2.90181920e+012 
68 227.48 3.53539896e+011 7.90392950e+011 
69 228.28 1.06348821e+011 2.37735261e+011 
70 229.09 3.92615656e+010 8.77543744e+010 
71 229.89 2.20982690e+010 4.93867885e+010 
72 230.69 2.18027913e+010 4.87263131e+010 
73 231.49 3.96027728e+010 8.85176253e+010 
74 232.30 1.13829661e+011 2.54458569e+011 
75 233.10 4.50819463e+011 1.00789015e+012 
76 233.91 2.10324529e+012 4.70253594e+012 
77 234.71 9.88510896e+012 2.21024464e+013 
78 235.51 4.79175223e+013 1.07142988e+014 
79 236.32 2.37657653e+014 5.31407345e+014 
80 237.12 1.17731520e+015 2.63252302e+015 
81 237.92 5.98202133e+015 1.33761045e+016 
82 238.73 2.92914766e+016 6.54974276e+016 
83 239.53 1.49009285e+017 3.33193964e+017 
84 240.34 7.46563599e+017 1.66936418e+018 
85 241.14 3.51464731e+018 7.85898223e+018 
86 241.94 1.57274632e+019 3.51676545e+019 
87 242.75 6.73574128e+019 1.50615693e+020 
88 243.55 2.73461430e+020 6.11478196e+020 
89 244.36 3.91494447e+020 8.75408154e+020 
90 245.16 1.01104599e+021 2.26076754e+021 
91 245.97 1.01318060e+021 2.26554069e+021 
92 246.77 2.68955731e+020 6.01403295e+020 
93 247.58 7.80083495e+019 1.74431971e+020 
94 248.38 2.44955391e+019 5.47736903e+019 
95 249.19 1.08356915e+019 2.42293426e+019 
96 249.99 5.29460663e+018 1.18391002e+019 
97 250.80 3.02381076e+018 6.76144630e+018 
98 251.60 1.84767720e+018 4.13153174e+018 
99 252.41 1.33966917e+018 2.99559126e+018 
100 253.21 9.66503108e+017 2.16116659e+018 
101 254.02 8.81412395e+017 1.97089798e+018 
102 254.83 7.91395089e+017 1.76961317e+018 
103 255.63 8.29809115e+017 1.85550954e+018 
104 256.44 1.01162392e+018 2.26205979e+018 
105 257.24 1.47372103e+018 3.29534033e+018 
106 258.05 2.18324811e+018 4.88189110e+018 
107 258.85 3.53130114e+018 7.89622928e+018 
108 259.66 7.61540976e+018 1.70285737e+019 
109 260.46 1.95137966e+019 4.36341754e+019 
110 261.27 5.29822410e+019 1.18471892e+020 
111 262.08 1.93446726e+020 4.32560027e+020 
112 262.88 8.68210099e+020 1.94137680e+021 
113 263.69 2.10837454e+021 4.71446879e+021 
114 264.50 8.17176464e+020 1.82726209e+021 
115 265.30 4.39603865e+020 9.82983960e+020 
116 266.11 1.55515948e+020 3.47744122e+020 
117 266.91 3.43212873e+019 7.67446926e+019 
118 267.72 6.80276882e+018 1.52114408e+019 
119 268.53 1.22989662e+018 2.75012845e+018 
120 269.33 2.29173131e+017 5.12445417e+017 
121 270.14 4.94021090e+016 1.10466033e+017 
122 270.95 9.67291351e+015 2.16291470e+016 
123 271.75 1.80155963e+015 4.02836323e+015 
124 272.56 3.27846194e+014 7.33072048e+014 
125 273.37 5.21198561e+013 1.16539360e+014 
126 274.17 8.78919926e+012 1.96520287e+013 
127 274.98 1.55421142e+012 3.47494309e+012 
128 275.79 2.98234551e+011 6.66746735e+011 
129 276.59 6.23702633e+010 1.39421587e+011 
130 277.40 1.33412309e+010 2.98169912e+010 
131 278.21 2.75504618e+009 6.15523165e+009 
132 279.01 6.10216543e+008 1.36263086e+009 
133 279.82 1.35777663e+008 3.02937805e+008 
134 280.63 3.03906276e+007 6.77072681e+007 
135 281.44 7.15873904e+006 1.59141373e+007 
136 282.24 1.89351283e+006 4.19639828e+006 
137 283.05 5.56906057e+005 1.22873151e+006 
138 283.86 1.75692483e+005 3.85170208e+005 
139 284.66 5.58917433e+004 1.21436999e+005 
140 285.47 1.90942767e+004 4.09724470e+004 
141 286.28 7.45177296e+003 1.57504307e+004 
142 287.09 3.07306866e+003 6.37548429e+003 
143 287.89 1.25812120e+003 2.54175575e+003 
144 288.70 5.59764394e+002 1.09573241e+003 
145 289.51 2.68355264e+002 5.05397497e+002 
146 290.32 1.44315479e+002 2.62203213e+002 
147 291.12 7.69481542e+001 1.32363805e+002 
148 291.93 4.31521356e+001 6.97244487e+001 
149 292.74 2.70092375e+001 4.14730308e+001 
150 293.55 1.67105608e+001 2.37469708e+001 
151 294.35 1.14012664e+001 1.52252555e+001 
152 295.16 7.90202278e+000 9.72349213e+000 
153 295.97 5.68927513e+000 6.36409527e+000 
154 296.78 4.30234936e+000 4.51031487e+000 
155 297.58 3.30219030e+000 3.11778174e+000 
156 298.39 2.63680446e+000 2.27783530e+000 
157 299.20 2.14609555e+000 1.67258020e+000 
158 300.01 1.81896279e+000 1.28391384e+000 
159 300.81 1.56803592e+000 9.93923559e-001 
160 301.62 1.38422138e+000 8.01081501e-001 
161 302.43 1.24034397e+000 6.67264356e-001 
162 303.24 1.12688228e+000 5.47125216e-001 
163 304.05 1.03426960e+000 4.47452245e-001 
164 304.85 9.55827980e-001 3.73436766e-001 
165 305.66 8.93361199e-001 3.21022569e-001 
166 306.47 8.52788403e-001 2.74984464e-001 
167 307.28 7.96691767e-001 2.27999326e-001 
168 308.08 7.74997100e-001 2.02323466e-001 
169 308.89 7.49759514e-001 1.79461323e-001 
170 309.70 7.21363934e-001 1.58972506e-001 
171 310.51 7.03613609e-001 1.34732982e-001 
172 311.32 6.85142523e-001 1.20235195e-001 
173 312.12 6.72248307e-001 1.06561936e-001 
174 312.93 6.64892239e-001 9.80479755e-002 
175 313.74 6.54955099e-001 8.39868118e-002 
176 314.55 6.54789368e-001 7.34511494e-002 
177 315.36 6.47540195e-001 6.24991005e-002 
178 316.16 6.50969039e-001 6.23988395e-002 
179 316.97 6.55361937e-001 5.47049945e-002 
180 317.78 6.60414208e-001 5.43236845e-002 
181 318.59 6.66351895e-001 4.66891222e-002 
182 319.39 6.75516022e-001 3.96444957e-002 
183 320.20 6.86485126e-001 4.41647978e-002 
184 321.01 6.95691360e-001 3.91400093e-002 
185 321.82 7.05358239e-001 3.47714927e-002 
186 322.63 7.28878356e-001 3.45751393e-002 
187 323.43 7.42725118e-001 3.24130163e-002 
188 324.24 7.62108038e-001 3.12499186e-002 
189 325.05 7.81979865e-001 3.18348417e-002 
190 325.86 8.03943775e-001 3.77955735e-002 
191 326.67 8.26291571e-001 3.38638075e-002 
192 327.48 8.55489113e-001 3.96364389e-002 
193 328.28 8.79452020e-001 3.63290222e-002 
194 329.09 9.16852914e-001 4.16219624e-002 
195 329.90 9.40232024e-001 4.51028012e-002 
196 330.71 9.99850091e-001 5.26098708e-002 
197 331.51 1.07023617e+000 6.71661262e-002 
198 332.32 1.19658296e+000 8.01628874e-002 
199 333.13 1.42629776e+000 1.09621942e-001 
200 333.94 1.86770854e+000 1.65872490e-001 
201 334.75 2.61804782e+000 2.41613214e-001 
202 335.56 3.70279572e+000 3.41504975e-001 
203 336.36 5.33982952e+000 5.10983156e-001 
204 337.17 7.98248850e+000 7.24171052e-001 
205 337.98 1.17862774e+001 9.28364248e-001 
206 338.79 1.64335295e+001 1.11140631e+000 
207 339.59 2.16552576e+001 1.31017517e+000 
208 340.40 2.63290798e+001 1.43683066e+000 
209 341.21 3.04132515e+001 1.50281727e+000 
210 342.02 3.51340757e+001 1.57674855e+000 
211 342.83 3.90574817e+001 1.68216952e+000 
212 343.64 4.00045475e+001 1.69351102e+000 
213 344.44 4.18578189e+001 1.66276266e+000 
214 345.25 4.67367153e+001 1.71719227e+000 
215 346.06 5.11589694e+001 1.72784897e+000 
216 346.87 5.40675210e+001 1.72492073e+000 
217 347.67 5.60705367e+001 1.70282486e+000 
218 348.48 5.80795508e+001 1.72431263e+000 
219 349.29 6.18452874e+001 1.71427028e+000 
220 350.10 6.78605455e+001 1.71057389e+000 
221 350.91 7.15593417e+001 1.70588384e+000 
222 351.71 7.16284370e+001 1.67788083e+000 
223 352.52 7.33200662e+001 1.61422111e+000 
224 353.33 8.01192462e+001 1.70136461e+000 
225 354.14 8.79915987e+001 1.72032733e+000 
226 354.94 9.12040778e+001 1.72310413e+000 
227 355.75 8.90823093e+001 1.62629130e+000 
228 356.56 8.36811214e+001 1.53144535e+000 
229 357.37 7.86290821e+001 1.46232517e+000 
230 358.18 7.83450052e+001 1.45400298e+000 
231 358.98 8.85709972e+001 1.53967370e+000 
232 359.79 1.01237197e+002 1.56906537e+000 
233 360.60 1.02468041e+002 1.59398463e+000 
234 361.41 1.01462559e+002 1.57650789e+000 
235 362.21 1.07113954e+002 1.61849540e+000 
236 363.02 1.13259610e+002 1.64039314e+000 
237 363.83 1.17151759e+002 1.69896207e+000 
238 364.64 1.23434694e+002 1.77330731e+000 
239 365.44 1.34590057e+002 1.85102444e+000 
240 366.25 1.43575893e+002 1.88621686e+000 
241 367.06 1.44532065e+002 1.90887167e+000 
242 367.87 1.42635201e+002 1.97798619e+000 
243 368.67 1.45283405e+002 2.01126551e+000 
244 369.48 1.51206999e+002 2.00194163e+000 
245 370.29 1.52605039e+002 2.08469884e+000 
246 371.10 1.50896440e+002 2.10196516e+000 
247 371.90 1.46702371e+002 2.03584374e+000 
248 372.71 1.38781235e+002 1.99811215e+000 
249 373.52 1.31707119e+002 1.93714307e+000 
250 374.33 1.32206557e+002 1.97255051e+000 
251 375.13 1.41874631e+002 2.07242176e+000 
252 375.94 1.54767482e+002 2.28145196e+000 
253 376.75 1.69158881e+002 2.49984400e+000 
254 377.55 1.84076727e+002 2.61302784e+000 
255 378.36 1.87174504e+002 2.68160566e+000 
256 379.17 1.78754762e+002 2.74132107e+000 
257 379.98 1.75422085e+002 2.67901272e+000 
258 380.78 1.73567378e+002 2.55017507e+000 
259 381.59 1.57728931e+002 2.40970773e+000 
260 382.40 1.35560685e+002 2.19631845e+000 
261 383.21 1.26967269e+002 2.10191816e+000 
262 384.01 1.38407248e+002 2.12740865e+000 
263 384.82 1.55395922e+002 2.23064387e+000 
264 385.63 1.63149886e+002 2.41317786e+000 
265 386.43 1.65244573e+002 2.43703102e+000 
266 387.24 1.66963314e+002 2.44679782e+000 
267 388.05 1.71164944e+002 2.54061245e+000 
268 388.85 1.82822678e+002 2.64979881e+000 
269 389.66 2.00110287e+002 2.75441559e+000 
270 390.47 2.13778781e+002 2.88242094e+000 
271 391.27 2.13333948e+002 2.77229575e+000 
272 392.08 1.89695201e+002 2.57639131e+000 
273 392.89 1.58038864e+002 2.45500754e+000 
274 393.69 1.54653528e+002 2.35221747e+000 
275 394.50 1.82819863e+002 2.15786934e+000 
276 395.31 2.00900784e+002 2.22678809e+000 
277 396.11 1.89775457e+002 2.54326409e+000 
278 396.92 1.86487637e+002 2.77351776e+000 
279 397.73 2.20717732e+002 2.70618370e+000 
280 398.53 2.69421678e+002 2.99469841e+000 
281 399.34 3.01628908e+002 3.48904945e+000 
282 400.15 3.18345583e+002 3.78238063e+000 
283 400.95 3.29932454e+002 3.90049201e+000 
284 401.76 3.38279271e+002 3.93221815e+000 
285 402.57 3.40862908e+002 4.00892873e+000 
286 403.37 3.39185642e+002 4.04126620e+000 
287 404.18 3.37471186e+002 4.02921766e+000 
288 404.98 3.35644498e+002 4.02478746e+000 
289 405.79 3.34035163e+002 4.02455425e+000 
290 406.60 3.35819323e+002 4.11194302e+000 
291 407.40 3.44473037e+002 4.19447106e+000 
292 408.21 3.56067752e+002 4.18446665e+000 
293 409.02 3.59843003e+002 4.25770972e+000 
294 409.82 3.58105197e+002 4.49687982e+000 
295 410.63 3.64099494e+002 4.50204038e+000 
296 411.44 3.78605123e+002 4.44528462e+000 
297 412.24 3.89334859e+002 4.64937088e+000 
298 413.05 3.92402910e+002 4.82879175e+000 
299 413.85 3.93792711e+002 4.86797016e+000 
300 414.66 3.96657520e+002 4.98557086e+000 
301 415.46 4.00301231e+002 5.04609428e+000 
302 416.27 4.01934596e+002 5.09401001e+000 
303 417.08 3.99426608e+002 5.20969338e+000 
304 417.88 3.95666453e+002 5.27958418e+000 
305 418.69 3.95026726e+002 5.29429580e+000 
306 419.49 3.98878748e+002 5.46015959e+000 
307 420.30 4.05998375e+002 5.57851207e+000 
308 421.11 4.10519033e+002 5.62869788e+000 
309 421.91 4.08528975e+002 5.77058771e+000 
310 422.72 4.03878350e+002 5.86501028e+000 
311 423.52 4.03318398e+002 5.82355916e+000 
312 424.33 4.06254226e+002 5.85536598e+000 
313 425.13 4.07407899e+002 5.89566584e+000 
314 425.94 4.04815136e+002 5.86185000e+000 
315 426.74 4.00908721e+002 5.81300366e+000 
316 427.55 3.95773540e+002 5.69829969e+000 
317 428.35 3.84525563e+002 5.46895851e+000 
318 429.16 3.64702394e+002 5.31012981e+000 
319 429.96 3.48031397e+002 5.37147565e+000 
320 430.77 3.54267069e+002 5.42436966e+000 
321 431.58 3.81933100e+002 5.37681997e+000 
322 432.38 4.10238128e+002 5.65843256e+000 
323 433.19 4.22287310e+002 6.03985235e+000 
324 433.99 4.27016532e+002 6.27445571e+000 
325 434.80 4.37646320e+002 6.36696138e+000 
326 435.60 4.52772032e+002 6.38475343e+000 
327 436.41 4.60542541e+002 6.40567494e+000 
328 437.21 4.55287187e+002 6.43060869e+000 
329 438.02 4.46305774e+002 6.43278361e+000 
330 438.82 4.44465540e+002 6.27973770e+000 
331 439.63 4.52283046e+002 6.19052764e+000 
332 440.43 4.67162438e+002 6.31760562e+000 
333 441.24 4.82205183e+002 6.41214809e+000 
334 442.04 4.94754083e+002 6.44725155e+000 
335 442.84 5.03140748e+002 6.52037566e+000 
336 443.65 5.06598014e+002 6.48498307e+000 
337 444.45 5.05392858e+002 6.40837573e+000 
338 445.26 5.03304428e+002 6.47678125e+000 
339 446.06 5.06322619e+002 6.49013462e+000 
340 446.87 5.15076728e+002 6.35051397e+000 
341 447.67 5.26897950e+002 6.31308734e+000 
342 448.48 5.37251601e+002 6.48404469e+000 
343 449.28 5.46791406e+002 6.58647458e+000 
344 450.09 5.55786259e+002 6.52694650e+000 
345 450.89 5.59358542e+002 6.42276800e+000 
346 451.69 5.53330463e+002 6.39479957e+000 
347 452.50 5.43518850e+002 6.37641592e+000 
348 453.30 5.38276523e+002 6.24151107e+000 
349 454.11 5.39939389e+002 6.09419506e+000 
350 454.91 5.47675737e+002 6.11412334e+000 
351 455.72 5.56169386e+002 6.14303409e+000 
352 456.52 5.62299049e+002 6.09499339e+000 
353 457.32 5.64599303e+002 6.12099328e+000 
354 458.13 5.63339272e+002 6.16574904e+000 
355 458.93 5.62451068e+002 6.17044005e+000 
356 459.74 5.65701589e+002 6.15348686e+000 
357 460.54 5.72480234e+002 6.11797804e+000 
358 461.34 5.79853360e+002 6.12020946e+000 
359 462.15 5.84395418e+002 6.12001725e+000 
360 462.95 5.83854310e+002 6.13880145e+000 
361 463.76 5.80251253e+002 6.15720008e+000 
362 464.56 5.76661620e+002 6.11360657e+000 
363 465.36 5.73493631e+002 5.99983487e+000 
364 466.17 5.72230487e+002 5.96282645e+000 
365 466.97 5.73576840e+002 5.99036757e+000 
366 467.77 5.76097220e+002 5.93735489e+000 
367 468.58 5.78335986e+002 5.86151323e+000 
368 469.38 5.79086679e+002 5.98908809e+000 
369 470.18 5.80956069e+002 6.20367400e+000 
370 470.99 5.86538763e+002 6.26221067e+000 
371 471.79 5.93784497e+002 6.21277069e+000 
372 472.59 6.01318266e+002 6.28202223e+000 
373 473.40 6.07233360e+002 6.34487039e+000 
374 474.20 6.10214424e+002 6.24815649e+000 
375 475.00 6.12105300e+002 6.24907256e+000 
376 475.81 6.14674926e+002 6.41481489e+000 
377 476.61 6.18325965e+002 6.49444706e+000 
378 477.41 6.23319693e+002 6.49570594e+000 
379 478.21 6.28692222e+002 6.57022561e+000 
380 479.02 6.32688599e+002 6.63814164e+000 
381 479.82 6.34892799e+002 6.70446683e+000 
382 480.62 6.37169893e+002 6.73357953e+000 
383 481.43 6.37724974e+002 6.72393392e+000 
384 482.23 6.35757173e+002 6.73514055e+000 
385 483.03 6.30362417e+002 6.67853256e+000 
386 483.84 6.18224071e+002 6.45365535e+000 
387 484.64 5.97026076e+002 6.32088905e+000 
388 485.44 5.75320222e+002 6.49669433e+000 
389 486.24 5.64559380e+002 6.67208711e+000 
390 487.05 5.66982776e+002 6.61458203e+000 
391 487.85 5.81352442e+002 6.62899358e+000 
392 488.65 6.00061308e+002 6.79460771e+000 
393 489.45 6.12214317e+002 6.82210586e+000 
394 490.26 6.15257323e+002 6.78241220e+000 
395 491.06 6.13513098e+002 6.87797124e+000 
396 491.86 6.10573232e+002 7.01052642e+000 
397 492.66 6.10438161e+002 7.08377068e+000 
398 493.46 6.15561302e+002 7.17491962e+000 
399 494.27 6.21703233e+002 7.31708606e+000 
400 495.07 6.25342331e+002 7.47382937e+000 
401 495.87 6.26685479e+002 7.48250403e+000 
402 496.67 6.23559095e+002 7.43477931e+000 
403 497.48 6.18843385e+002 7.43863137e+000 
404 498.28 6.14310710e+002 7.42559972e+000 
405 499.08 6.07768644e+002 7.30732680e+000 
406 499.88 6.00827232e+002 7.25930050e+000 
407 500.68 5.96170697e+002 7.35170337e+000 
408 501.48 5.94310197e+002 7.41369154e+000 
409 502.29 5.95647479e+002 7.40566713e+000 
410 503.09 5.99369287e+002 7.48360823e+000 
411 503.89 6.05362959e+002 7.63879378e+000 
412 504.69 6.11676802e+002 7.69091156e+000 
413 505.49 6.15347996e+002 7.62031669e+000 
414 506.29 6.15757193e+002 7.60800662e+000 
415 507.09 6.13791265e+002 7.68823310e+000 
416 507.90 6.11141236e+002 7.68866762e+000 
417 508.70 6.09402247e+002 7.62359390e+000 
418 509.50 6.09903557e+002 7.60298140e+000 
419 510.30 6.11441658e+002 7.56891594e+000 
420 511.10 6.10144979e+002 7.43024912e+000 
421 511.90 6.05868573e+002 7.30062287e+000 
422 512.70 5.99849366e+002 7.24920464e+000 
423 513.51 5.93354034e+002 7.21928813e+000 
424 514.31 5.86817716e+002 7.04883878e+000 
425 515.11 5.76139219e+002 6.80549205e+000 
426 515.91 5.61426090e+002 6.72263839e+000 
427 516.71 5.48658976e+002 6.76399476e+000 
428 517.51 5.41704788e+002 6.75741215e+000 
429 518.31 5.45091365e+002 6.68491396e+000 
430 519.11 5.57281882e+002 6.67056399e+000 
431 519.91 5.70199351e+002 6.71505774e+000 
432 520.71 5.79869135e+002 6.77010180e+000 
433 521.51 5.84389977e+002 6.86230960e+000 
434 522.32 5.87709672e+002 6.98432161e+000 
435 523.12 5.92277328e+002 7.02791580e+000 
436 523.92 5.95306405e+002 6.90719751e+000 
437 524.72 5.93460177e+002 6.74749019e+000 
438 525.52 5.85828123e+002 6.75385066e+000 
439 526.32 5.78362157e+002 6.85384880e+000 
440 527.12 5.78099063e+002 6.77986429e+000 
441 527.92 5.84973988e+002 6.55217944e+000 
442 528.72 5.96779452e+002 6.42363997e+000 
443 529.52 6.08259855e+002 6.44974788e+000 
444 530.32 6.13031475e+002 6.40038807e+000 
445 531.12 6.10373932e+002 6.38157383e+000 
446 531.92 6.05480774e+002 6.49633674e+000 
447 532.72 6.01614327e+002 6.59309005e+000 
448 533.52 6.01368977e+002 6.56146117e+000 
449 534.32 6.05234045e+002 6.39116054e+000 
