% C0 (TOA Count Rate, /ms) for 4STAR VIS spectrometer (1044 channels) derived from 20130708-20130711 and recorded on 2014-11-18 15:13:17.
% Modified Langley processed for 0.8823-0.9945 micron region
Pix Wavelength C0 C0err
0 173.18 -1.00000000e+000 0.00000000e+000 
1 173.97 2.02860928e+006 0.00000000e+000 
2 174.77 -1.86948151e+006 0.00000000e+000 
3 175.56 2.69932835e+006 0.00000000e+000 
4 176.36 6.28683592e+008 0.00000000e+000 
5 177.15 7.84639767e+008 0.00000000e+000 
6 177.94 9.95124112e+008 0.00000000e+000 
7 178.74 1.28542881e+009 0.00000000e+000 
8 179.53 1.58593695e+009 0.00000000e+000 
9 180.33 2.02098281e+009 0.00000000e+000 
10 181.12 2.45872509e+009 0.00000000e+000 
11 181.92 3.17792544e+009 0.00000000e+000 
12 182.71 3.99847487e+009 0.00000000e+000 
13 183.51 5.34397378e+009 0.00000000e+000 
14 184.30 6.71765061e+009 0.00000000e+000 
15 185.10 8.98245885e+009 0.00000000e+000 
16 185.89 1.26451429e+010 0.00000000e+000 
17 186.69 1.66224926e+010 0.00000000e+000 
18 187.49 2.23143605e+010 0.00000000e+000 
19 188.28 3.10294651e+010 0.00000000e+000 
20 189.08 4.27541884e+010 0.00000000e+000 
21 189.88 5.92842268e+010 0.00000000e+000 
22 190.67 8.23119779e+010 0.00000000e+000 
23 191.47 1.18950792e+011 0.00000000e+000 
24 192.27 1.68692359e+011 0.00000000e+000 
25 193.07 2.51458716e+011 0.00000000e+000 
26 193.86 3.80549593e+011 0.00000000e+000 
27 194.66 5.81763732e+011 0.00000000e+000 
28 195.46 8.74867705e+011 0.00000000e+000 
29 196.26 1.37804960e+012 0.00000000e+000 
30 197.05 2.21982557e+012 0.00000000e+000 
31 197.85 3.64924351e+012 0.00000000e+000 
32 198.65 5.44898814e+012 0.00000000e+000 
33 199.45 9.18113963e+012 0.00000000e+000 
34 200.25 1.65474602e+013 0.00000000e+000 
35 201.05 3.05600234e+013 0.00000000e+000 
36 201.85 5.79612047e+013 0.00000000e+000 
37 202.64 1.11718368e+014 0.00000000e+000 
38 203.44 2.18205708e+014 0.00000000e+000 
39 204.24 3.91718864e+014 0.00000000e+000 
40 205.04 8.70431420e+014 0.00000000e+000 
41 205.84 2.07424878e+015 0.00000000e+000 
42 206.64 5.08933333e+015 0.00000000e+000 
43 207.44 1.36237884e+016 0.00000000e+000 
44 208.24 3.82191981e+016 0.00000000e+000 
45 209.04 1.14844611e+017 0.00000000e+000 
46 209.84 3.53630826e+017 0.00000000e+000 
47 210.64 1.32814863e+018 0.00000000e+000 
48 211.44 4.97537262e+018 0.00000000e+000 
49 212.24 2.18883503e+019 0.00000000e+000 
50 213.05 1.14542563e+020 0.00000000e+000 
51 213.85 5.19541351e+020 0.00000000e+000 
52 214.65 2.11761004e+020 4.01324399e+004 
53 215.45 9.22768873e+019 0.00000000e+000 
54 216.25 4.77363321e+019 0.00000000e+000 
55 217.05 1.23530033e+019 0.00000000e+000 
56 217.85 3.23362398e+018 0.00000000e+000 
57 218.65 8.64282677e+017 0.00000000e+000 
58 219.46 2.23421533e+017 0.00000000e+000 
59 220.26 5.70246791e+016 0.00000000e+000 
60 221.06 1.49229654e+016 0.00000000e+000 
61 221.86 4.00814347e+015 0.00000000e+000 
62 222.66 1.05787691e+015 0.00000000e+000 
63 223.47 2.71018981e+014 0.00000000e+000 
64 224.27 7.12142615e+013 0.00000000e+000 
65 225.07 1.88622321e+013 0.00000000e+000 
66 225.87 4.87735685e+012 0.00000000e+000 
67 226.68 1.29788536e+012 0.00000000e+000 
68 227.48 3.53539896e+011 0.00000000e+000 
69 228.28 1.06348821e+011 0.00000000e+000 
70 229.09 3.92615656e+010 0.00000000e+000 
71 229.89 2.20982690e+010 0.00000000e+000 
72 230.69 2.18027913e+010 0.00000000e+000 
73 231.49 3.96027728e+010 0.00000000e+000 
74 232.30 1.13829661e+011 0.00000000e+000 
75 233.10 4.50819463e+011 0.00000000e+000 
76 233.91 2.10324529e+012 0.00000000e+000 
77 234.71 9.88510896e+012 0.00000000e+000 
78 235.51 4.79175223e+013 0.00000000e+000 
79 236.32 2.37657653e+014 0.00000000e+000 
80 237.12 1.17731520e+015 0.00000000e+000 
81 237.92 5.98202133e+015 0.00000000e+000 
82 238.73 2.92914766e+016 0.00000000e+000 
83 239.53 1.49009285e+017 0.00000000e+000 
84 240.34 7.46563599e+017 0.00000000e+000 
85 241.14 3.51464731e+018 6.27069374e+002 
86 241.94 1.57274632e+019 0.00000000e+000 
87 242.75 6.73574128e+019 0.00000000e+000 
88 243.55 2.73461430e+020 0.00000000e+000 
89 244.36 3.91494447e+020 0.00000000e+000 
90 245.16 1.01104599e+021 1.60529760e+005 
91 245.97 1.01318060e+021 1.60529760e+005 
92 246.77 2.68955731e+020 0.00000000e+000 
93 247.58 7.80083495e+019 0.00000000e+000 
94 248.38 2.44955391e+019 0.00000000e+000 
95 249.19 1.08356915e+019 0.00000000e+000 
96 249.99 5.29460663e+018 0.00000000e+000 
97 250.80 3.02381076e+018 0.00000000e+000 
98 251.60 1.84767720e+018 0.00000000e+000 
99 252.41 1.33966917e+018 0.00000000e+000 
100 253.21 9.66503108e+017 0.00000000e+000 
101 254.02 8.81412395e+017 0.00000000e+000 
102 254.83 7.91395089e+017 0.00000000e+000 
103 255.63 8.29809115e+017 0.00000000e+000 
104 256.44 1.01162392e+018 0.00000000e+000 
105 257.24 1.47372103e+018 0.00000000e+000 
106 258.05 2.18324811e+018 0.00000000e+000 
107 258.85 3.53130114e+018 0.00000000e+000 
108 259.66 7.61540976e+018 0.00000000e+000 
109 260.46 1.95137966e+019 0.00000000e+000 
110 261.27 5.29822410e+019 0.00000000e+000 
111 262.08 1.93446726e+020 0.00000000e+000 
112 262.88 8.68210099e+020 0.00000000e+000 
113 263.69 2.10837454e+021 0.00000000e+000 
114 264.50 8.17176464e+020 0.00000000e+000 
115 265.30 4.39603865e+020 0.00000000e+000 
116 266.11 1.55515948e+020 0.00000000e+000 
117 266.91 3.43212873e+019 5.01655499e+003 
118 267.72 6.80276882e+018 1.25413875e+003 
119 268.53 1.22989662e+018 0.00000000e+000 
120 269.33 2.29173131e+017 0.00000000e+000 
121 270.14 4.94021090e+016 0.00000000e+000 
122 270.95 9.67291351e+015 0.00000000e+000 
123 271.75 1.80155963e+015 0.00000000e+000 
124 272.56 3.27846194e+014 0.00000000e+000 
125 273.37 5.21198561e+013 0.00000000e+000 
126 274.17 8.78919926e+012 0.00000000e+000 
127 274.98 1.55421142e+012 0.00000000e+000 
128 275.79 2.98234551e+011 0.00000000e+000 
129 276.59 6.23702633e+010 0.00000000e+000 
130 277.40 1.33412309e+010 0.00000000e+000 
131 278.21 2.75504618e+009 0.00000000e+000 
132 279.01 6.10216543e+008 0.00000000e+000 
133 279.82 1.35777663e+008 0.00000000e+000 
134 280.63 3.03906276e+007 4.56253019e-009 
135 281.44 7.15873904e+006 0.00000000e+000 
136 282.24 1.89351283e+006 0.00000000e+000 
137 283.05 5.56906057e+005 0.00000000e+000 
138 283.86 1.75692483e+005 0.00000000e+000 
139 284.66 5.58917433e+004 0.00000000e+000 
140 285.47 1.90942767e+004 0.00000000e+000 
141 286.28 7.45177296e+003 1.11389897e-012 
142 287.09 3.07306866e+003 5.56949486e-013 
143 287.89 1.25812120e+003 0.00000000e+000 
144 288.70 5.59764394e+002 0.00000000e+000 
145 289.51 2.68355264e+002 0.00000000e+000 
146 290.32 1.44315479e+002 0.00000000e+000 
147 291.12 7.69481542e+001 0.00000000e+000 
148 291.93 4.31521356e+001 0.00000000e+000 
149 292.74 2.70092375e+001 0.00000000e+000 
150 293.55 1.67105608e+001 0.00000000e+000 
151 294.35 1.14012664e+001 2.17558393e-015 
152 295.16 7.90202278e+000 0.00000000e+000 
153 295.97 5.68927513e+000 1.08779196e-015 
154 296.78 4.30234936e+000 0.00000000e+000 
155 297.58 3.30219030e+000 0.00000000e+000 
156 298.39 2.63680446e+000 0.00000000e+000 
157 299.20 2.14609555e+000 0.00000000e+000 
158 300.01 1.81896279e+000 2.71947991e-016 
159 300.81 1.56803592e+000 0.00000000e+000 
160 301.62 1.38422138e+000 2.71947991e-016 
161 302.43 1.24034397e+000 0.00000000e+000 
162 303.24 1.12688228e+000 0.00000000e+000 
163 304.05 1.03426960e+000 0.00000000e+000 
164 304.85 9.55827980e-001 0.00000000e+000 
165 305.66 8.93361199e-001 0.00000000e+000 
166 306.47 8.52788403e-001 0.00000000e+000 
167 307.28 7.96691767e-001 0.00000000e+000 
168 308.08 7.74997100e-001 1.35973996e-016 
169 308.89 7.49759514e-001 0.00000000e+000 
170 309.70 7.21363934e-001 1.35973996e-016 
171 310.51 7.03613609e-001 0.00000000e+000 
172 311.32 6.85142523e-001 0.00000000e+000 
173 312.12 6.72248307e-001 1.35973996e-016 
174 312.93 6.64892239e-001 0.00000000e+000 
175 313.74 6.54955099e-001 0.00000000e+000 
176 314.55 6.54789368e-001 0.00000000e+000 
177 315.36 6.47540195e-001 0.00000000e+000 
178 316.16 6.50969039e-001 0.00000000e+000 
179 316.97 6.55361937e-001 0.00000000e+000 
180 317.78 6.60414208e-001 0.00000000e+000 
181 318.59 6.66351895e-001 0.00000000e+000 
182 319.39 6.75516022e-001 0.00000000e+000 
183 320.20 6.86485126e-001 0.00000000e+000 
184 321.01 6.95691360e-001 0.00000000e+000 
185 321.82 7.05358239e-001 0.00000000e+000 
186 322.63 7.28878356e-001 0.00000000e+000 
187 323.43 7.42725118e-001 0.00000000e+000 
188 324.24 7.62108038e-001 0.00000000e+000 
189 325.05 7.81979865e-001 1.35973996e-016 
190 325.86 8.03943775e-001 0.00000000e+000 
191 326.67 8.26291571e-001 0.00000000e+000 
192 327.48 8.55489113e-001 0.00000000e+000 
193 328.28 8.79452020e-001 0.00000000e+000 
194 329.09 9.16852914e-001 0.00000000e+000 
195 329.90 9.40232024e-001 0.00000000e+000 
196 330.71 9.99850091e-001 0.00000000e+000 
197 331.51 1.07023617e+000 0.00000000e+000 
198 332.32 1.19658296e+000 0.00000000e+000 
199 333.13 1.42629776e+000 0.00000000e+000 
200 333.94 1.86770854e+000 0.00000000e+000 
201 334.75 2.61804782e+000 0.00000000e+000 
202 335.56 3.70279572e+000 5.43895982e-016 
203 336.36 5.33982952e+000 1.08779196e-015 
204 337.17 7.98248850e+000 0.00000000e+000 
205 337.98 1.17862774e+001 2.17558393e-015 
206 338.79 1.64335295e+001 0.00000000e+000 
207 339.59 2.16552576e+001 0.00000000e+000 
208 340.40 2.63290798e+001 0.00000000e+000 
209 341.21 3.04132515e+001 0.00000000e+000 
210 342.02 3.51340757e+001 0.00000000e+000 
211 342.83 3.90574817e+001 0.00000000e+000 
212 343.64 4.00045475e+001 0.00000000e+000 
213 344.44 4.18578189e+001 0.00000000e+000 
214 345.25 4.67367153e+001 8.70233572e-015 
215 346.06 5.11589694e+001 0.00000000e+000 
216 346.87 5.40675210e+001 0.00000000e+000 
217 347.67 5.60705367e+001 0.00000000e+000 
218 348.48 5.80795508e+001 0.00000000e+000 
219 349.29 6.18452874e+001 0.00000000e+000 
220 350.10 6.78605455e+001 0.00000000e+000 
221 350.91 7.15593417e+001 0.00000000e+000 
222 351.71 7.16284370e+001 0.00000000e+000 
223 352.52 7.33200662e+001 0.00000000e+000 
224 353.33 8.01192462e+001 0.00000000e+000 
225 354.14 8.79915987e+001 0.00000000e+000 
226 354.94 9.12040778e+001 0.00000000e+000 
227 355.75 8.90823093e+001 0.00000000e+000 
228 356.56 8.36811214e+001 0.00000000e+000 
229 357.37 7.86290821e+001 0.00000000e+000 
230 358.18 7.83450052e+001 0.00000000e+000 
231 358.98 8.85709972e+001 1.74046714e-014 
232 359.79 1.01237197e+002 0.00000000e+000 
233 360.60 1.02468041e+002 1.74046714e-014 
234 361.41 1.01462559e+002 0.00000000e+000 
235 362.21 1.07113954e+002 1.74046714e-014 
236 363.02 1.13259610e+002 0.00000000e+000 
237 363.83 1.17151759e+002 1.74046714e-014 
238 364.64 1.23434694e+002 0.00000000e+000 
239 365.44 1.34590057e+002 0.00000000e+000 
240 366.25 1.43575893e+002 0.00000000e+000 
241 367.06 1.44532065e+002 0.00000000e+000 
242 367.87 1.42635201e+002 0.00000000e+000 
243 368.67 1.45283405e+002 0.00000000e+000 
244 369.48 1.51206999e+002 0.00000000e+000 
245 370.29 1.52605039e+002 0.00000000e+000 
246 371.10 1.50896440e+002 0.00000000e+000 
247 371.90 1.46702371e+002 0.00000000e+000 
248 372.71 1.38781235e+002 0.00000000e+000 
249 373.52 1.31707119e+002 0.00000000e+000 
250 374.33 1.32206557e+002 0.00000000e+000 
251 375.13 1.41874631e+002 0.00000000e+000 
252 375.94 1.54767482e+002 0.00000000e+000 
253 376.75 1.69158881e+002 0.00000000e+000 
254 377.55 1.84076727e+002 0.00000000e+000 
255 378.36 1.87174504e+002 3.48093429e-014 
256 379.17 1.78754762e+002 0.00000000e+000 
257 379.98 1.75422085e+002 0.00000000e+000 
258 380.78 1.73567378e+002 0.00000000e+000 
259 381.59 1.57728931e+002 0.00000000e+000 
260 382.40 1.35560685e+002 0.00000000e+000 
261 383.21 1.26967269e+002 0.00000000e+000 
262 384.01 1.38407248e+002 0.00000000e+000 
263 384.82 1.55395922e+002 0.00000000e+000 
264 385.63 1.63149886e+002 0.00000000e+000 
265 386.43 1.65244573e+002 0.00000000e+000 
266 387.24 1.66963314e+002 0.00000000e+000 
267 388.05 1.71164944e+002 0.00000000e+000 
268 388.85 1.82822678e+002 0.00000000e+000 
269 389.66 2.00110287e+002 0.00000000e+000 
270 390.47 2.13778781e+002 0.00000000e+000 
271 391.27 2.13333948e+002 0.00000000e+000 
272 392.08 1.89695201e+002 0.00000000e+000 
273 392.89 1.58038864e+002 0.00000000e+000 
274 393.69 1.54653528e+002 0.00000000e+000 
275 394.50 1.82819863e+002 3.48093429e-014 
276 395.31 2.00900784e+002 3.48093429e-014 
277 396.11 1.89775457e+002 0.00000000e+000 
278 396.92 1.86487637e+002 3.48093429e-014 
279 397.73 2.20717732e+002 3.48093429e-014 
280 398.53 2.69421678e+002 0.00000000e+000 
281 399.34 3.01628908e+002 0.00000000e+000 
282 400.15 3.18345583e+002 0.00000000e+000 
283 400.95 3.29932454e+002 0.00000000e+000 
284 401.76 3.38279271e+002 0.00000000e+000 
285 402.57 3.40862908e+002 0.00000000e+000 
286 403.37 3.39185642e+002 0.00000000e+000 
287 404.18 3.37471186e+002 0.00000000e+000 
288 404.98 3.35644498e+002 0.00000000e+000 
289 405.79 3.34035163e+002 0.00000000e+000 
290 406.60 3.35819323e+002 0.00000000e+000 
291 407.40 3.44473037e+002 0.00000000e+000 
292 408.21 3.56067752e+002 0.00000000e+000 
293 409.02 3.59843003e+002 0.00000000e+000 
294 409.82 3.58105197e+002 6.96186857e-014 
295 410.63 3.64099494e+002 0.00000000e+000 
296 411.44 3.78605123e+002 0.00000000e+000 
297 412.24 3.89334859e+002 0.00000000e+000 
298 413.05 3.92402910e+002 0.00000000e+000 
299 413.85 3.93792711e+002 0.00000000e+000 
300 414.66 3.96657520e+002 0.00000000e+000 
301 415.46 4.00301231e+002 0.00000000e+000 
302 416.27 4.01934596e+002 0.00000000e+000 
303 417.08 3.99426608e+002 0.00000000e+000 
304 417.88 3.95666453e+002 0.00000000e+000 
305 418.69 3.95026726e+002 0.00000000e+000 
306 419.49 3.98878748e+002 6.96186857e-014 
307 420.30 4.05998375e+002 6.96186857e-014 
308 421.11 4.10519033e+002 0.00000000e+000 
309 421.91 4.08528975e+002 0.00000000e+000 
310 422.72 4.03878350e+002 0.00000000e+000 
311 423.52 4.03318398e+002 6.96186857e-014 
312 424.33 4.06254226e+002 0.00000000e+000 
313 425.13 4.07407899e+002 0.00000000e+000 
314 425.94 4.04815136e+002 0.00000000e+000 
315 426.74 4.00908721e+002 0.00000000e+000 
316 427.55 3.95773540e+002 6.96186857e-014 
317 428.35 3.84525563e+002 0.00000000e+000 
318 429.16 3.64702394e+002 6.96186857e-014 
319 429.96 3.48031397e+002 0.00000000e+000 
320 430.77 3.54267069e+002 0.00000000e+000 
321 431.58 3.81933100e+002 0.00000000e+000 
322 432.38 4.10238128e+002 0.00000000e+000 
323 433.19 4.22287310e+002 0.00000000e+000 
324 433.99 4.27016532e+002 6.96186857e-014 
325 434.80 4.37646320e+002 0.00000000e+000 
326 435.60 4.52772032e+002 0.00000000e+000 
327 436.41 4.60542541e+002 0.00000000e+000 
328 437.21 4.55287187e+002 6.96186857e-014 
329 438.02 4.46305774e+002 0.00000000e+000 
330 438.82 4.44465540e+002 0.00000000e+000 
331 439.63 4.52283046e+002 0.00000000e+000 
332 440.43 4.67162438e+002 0.00000000e+000 
333 441.24 4.82205183e+002 0.00000000e+000 
334 442.04 4.94754083e+002 0.00000000e+000 
335 442.84 5.03140748e+002 0.00000000e+000 
336 443.65 5.06598014e+002 0.00000000e+000 
337 444.45 5.05392858e+002 0.00000000e+000 
338 445.26 5.03304428e+002 0.00000000e+000 
339 446.06 5.06322619e+002 0.00000000e+000 
340 446.87 5.15076728e+002 0.00000000e+000 
341 447.67 5.26897950e+002 0.00000000e+000 
342 448.48 5.37251601e+002 0.00000000e+000 
343 449.28 5.46791406e+002 0.00000000e+000 
344 450.09 5.55786259e+002 0.00000000e+000 
345 450.89 5.59358542e+002 0.00000000e+000 
346 451.69 5.53330463e+002 0.00000000e+000 
347 452.50 5.43518850e+002 0.00000000e+000 
348 453.30 5.38276523e+002 0.00000000e+000 
349 454.11 5.39939389e+002 0.00000000e+000 
350 454.91 5.47675737e+002 0.00000000e+000 
351 455.72 5.56169386e+002 0.00000000e+000 
352 456.52 5.62299049e+002 0.00000000e+000 
353 457.32 5.64599303e+002 0.00000000e+000 
354 458.13 5.63339272e+002 0.00000000e+000 
355 458.93 5.62451068e+002 0.00000000e+000 
356 459.74 5.65701589e+002 0.00000000e+000 
357 460.54 5.72480234e+002 0.00000000e+000 
358 461.34 5.79853360e+002 0.00000000e+000 
359 462.15 5.84395418e+002 0.00000000e+000 
360 462.95 5.83854310e+002 0.00000000e+000 
361 463.76 5.80251253e+002 0.00000000e+000 
362 464.56 5.76661620e+002 0.00000000e+000 
363 465.36 5.73493631e+002 0.00000000e+000 
364 466.17 5.72230487e+002 0.00000000e+000 
365 466.97 5.73576840e+002 0.00000000e+000 
366 467.77 5.76097220e+002 0.00000000e+000 
367 468.58 5.78335986e+002 0.00000000e+000 
368 469.38 5.79086679e+002 0.00000000e+000 
369 470.18 5.80956069e+002 0.00000000e+000 
370 470.99 5.86538763e+002 0.00000000e+000 
371 471.79 5.93784497e+002 0.00000000e+000 
372 472.59 6.01318266e+002 0.00000000e+000 
373 473.40 6.07233360e+002 0.00000000e+000 
374 474.20 6.10214424e+002 0.00000000e+000 
375 475.00 6.12105300e+002 0.00000000e+000 
376 475.81 6.14674926e+002 0.00000000e+000 
377 476.61 6.18325965e+002 0.00000000e+000 
378 477.41 6.23319693e+002 0.00000000e+000 
379 478.21 6.28692222e+002 0.00000000e+000 
380 479.02 6.32688599e+002 0.00000000e+000 
381 479.82 6.34892799e+002 0.00000000e+000 
382 480.62 6.37169893e+002 0.00000000e+000 
383 481.43 6.37724974e+002 0.00000000e+000 
384 482.23 6.35757173e+002 0.00000000e+000 
385 483.03 6.30362417e+002 0.00000000e+000 
386 483.84 6.18224071e+002 0.00000000e+000 
387 484.64 5.97026076e+002 0.00000000e+000 
388 485.44 5.75320222e+002 0.00000000e+000 
389 486.24 5.64559380e+002 0.00000000e+000 
390 487.05 5.66982776e+002 0.00000000e+000 
391 487.85 5.81352442e+002 0.00000000e+000 
392 488.65 6.00061308e+002 0.00000000e+000 
393 489.45 6.12214317e+002 0.00000000e+000 
394 490.26 6.15257323e+002 0.00000000e+000 
395 491.06 6.13513098e+002 0.00000000e+000 
396 491.86 6.10573232e+002 0.00000000e+000 
397 492.66 6.10438161e+002 0.00000000e+000 
398 493.46 6.15561302e+002 0.00000000e+000 
399 494.27 6.21703233e+002 0.00000000e+000 
400 495.07 6.25342331e+002 0.00000000e+000 
401 495.87 6.26685479e+002 0.00000000e+000 
402 496.67 6.23559095e+002 0.00000000e+000 
403 497.48 6.18843385e+002 0.00000000e+000 
404 498.28 6.14310710e+002 0.00000000e+000 
405 499.08 6.07768644e+002 0.00000000e+000 
406 499.88 6.00827232e+002 0.00000000e+000 
407 500.68 5.96170697e+002 0.00000000e+000 
408 501.48 5.94310197e+002 0.00000000e+000 
409 502.29 5.95647479e+002 0.00000000e+000 
410 503.09 5.99369287e+002 0.00000000e+000 
411 503.89 6.05362959e+002 0.00000000e+000 
412 504.69 6.11676802e+002 0.00000000e+000 
413 505.49 6.15347996e+002 0.00000000e+000 
414 506.29 6.15757193e+002 0.00000000e+000 
415 507.09 6.13791265e+002 0.00000000e+000 
416 507.90 6.11141236e+002 0.00000000e+000 
417 508.70 6.09402247e+002 0.00000000e+000 
418 509.50 6.09903557e+002 0.00000000e+000 
419 510.30 6.11441658e+002 0.00000000e+000 
420 511.10 6.10144979e+002 0.00000000e+000 
421 511.90 6.05868573e+002 0.00000000e+000 
422 512.70 5.99849366e+002 0.00000000e+000 
423 513.51 5.93354034e+002 0.00000000e+000 
424 514.31 5.86817716e+002 0.00000000e+000 
425 515.11 5.76139219e+002 0.00000000e+000 
426 515.91 5.61426090e+002 0.00000000e+000 
427 516.71 5.48658976e+002 0.00000000e+000 
428 517.51 5.41704788e+002 0.00000000e+000 
429 518.31 5.45091365e+002 0.00000000e+000 
430 519.11 5.57281882e+002 0.00000000e+000 
431 519.91 5.70199351e+002 0.00000000e+000 
432 520.71 5.79869135e+002 0.00000000e+000 
433 521.51 5.84389977e+002 0.00000000e+000 
434 522.32 5.87709672e+002 0.00000000e+000 
435 523.12 5.92277328e+002 0.00000000e+000 
436 523.92 5.95306405e+002 0.00000000e+000 
437 524.72 5.93460177e+002 0.00000000e+000 
438 525.52 5.85828123e+002 0.00000000e+000 
439 526.32 5.78362157e+002 0.00000000e+000 
440 527.12 5.78099063e+002 0.00000000e+000 
441 527.92 5.84973988e+002 0.00000000e+000 
442 528.72 5.96779452e+002 0.00000000e+000 
443 529.52 6.08259855e+002 0.00000000e+000 
444 530.32 6.13031475e+002 0.00000000e+000 
445 531.12 6.10373932e+002 0.00000000e+000 
446 531.92 6.05480774e+002 0.00000000e+000 
447 532.72 6.01614327e+002 0.00000000e+000 
448 533.52 6.01368977e+002 0.00000000e+000 
449 534.32 6.05234045e+002 0.00000000e+000 
450 535.12 6.09034891e+002 0.00000000e+000 
