% C0 (TOA Count Rate, /ms) for 4STAR NIR spectrometer (512 channels) derived from (SEE ORIGINAL FILES FOR SOURCES) and recorded on 2014-07-17 17:53:13.
% Average of the 20130708, 20130709, 20130710, 20130711, 20130712 Langley C0, refined_Langley_at_MLO_screened_3.0x.
Pix Wavelength C0 C0err
511 949.79 5.10918083e+000 1.16607556e-001 
510 949.79 5.25301732e+000 1.12698202e-001 
509 951.68 5.65128028e+000 1.15062305e-001 
508 953.57 5.72449385e+000 1.13744252e-001 
507 955.46 6.20626183e+000 1.22813876e-001 
506 957.34 6.33059007e+000 1.21824361e-001 
505 959.22 6.83971091e+000 1.25608741e-001 
504 961.10 6.95682554e+000 1.18069044e-001 
503 962.98 7.42606323e+000 1.15155890e-001 
502 964.85 7.44561968e+000 1.13955894e-001 
501 966.72 7.99274915e+000 1.18047393e-001 
500 968.59 8.04175497e+000 1.15349991e-001 
499 970.45 8.46934510e+000 1.19429970e-001 
498 972.32 8.40279065e+000 1.20596669e-001 
497 974.18 8.75223492e+000 1.21245413e-001 
496 976.04 8.66082789e+000 1.19493753e-001 
495 977.89 9.01031797e+000 1.23081347e-001 
494 979.74 8.92695721e+000 1.28233017e-001 
493 981.59 9.23791992e+000 1.29334838e-001 
492 983.44 9.11513200e+000 1.27466480e-001 
491 985.29 9.37262308e+000 1.33082937e-001 
490 987.13 9.15225481e+000 1.24628026e-001 
489 988.97 9.40442273e+000 1.21163252e-001 
488 990.81 9.20365124e+000 1.28273924e-001 
487 992.65 9.37460399e+000 1.25833854e-001 
486 994.48 9.16641103e+000 1.21168438e-001 
485 996.31 9.31038528e+000 1.31009816e-001 
484 998.14 9.06681008e+000 1.23446766e-001 
483 999.97 9.22595933e+000 1.34416480e-001 
482 1001.79 8.92463782e+000 1.28418568e-001 
481 1003.62 9.00908781e+000 1.29726749e-001 
480 1005.44 8.78469723e+000 1.22419150e-001 
479 1007.25 9.03752913e+000 1.27557088e-001 
478 1009.07 8.84045328e+000 1.32941843e-001 
477 1010.88 9.01146165e+000 1.35515064e-001 
476 1012.69 8.75640528e+000 1.32363252e-001 
475 1014.50 8.87006355e+000 1.35329524e-001 
474 1016.31 8.63844482e+000 1.29670135e-001 
473 1018.11 8.80159994e+000 1.40100441e-001 
472 1019.91 8.55844652e+000 1.28006358e-001 
471 1021.71 8.71126993e+000 1.28800244e-001 
470 1023.51 8.47275272e+000 1.20275597e-001 
469 1025.30 8.65626773e+000 1.22774073e-001 
468 1027.09 8.53650461e+000 1.21347672e-001 
467 1028.88 8.68566674e+000 1.24832251e-001 
466 1030.67 8.52454986e+000 1.22211954e-001 
465 1032.46 8.70028030e+000 1.32388726e-001 
464 1034.24 8.53809998e+000 1.29905041e-001 
463 1036.02 8.73967724e+000 1.32489434e-001 
462 1037.80 8.61931430e+000 1.38135387e-001 
461 1039.58 8.84277018e+000 1.37350659e-001 
460 1041.35 8.70076971e+000 1.25307127e-001 
459 1043.12 8.86581663e+000 1.42659540e-001 
458 1044.89 8.78056493e+000 1.51681355e-001 
457 1046.66 9.02164778e+000 1.49019029e-001 
456 1048.43 8.96459525e+000 1.46019331e-001 
455 1050.19 9.20942098e+000 1.46246854e-001 
454 1051.95 9.06220640e+000 1.44298329e-001 
453 1053.71 9.32894065e+000 1.45218968e-001 
452 1055.47 9.16744924e+000 1.34878401e-001 
451 1057.23 9.31815397e+000 1.39560499e-001 
450 1058.98 9.16066939e+000 1.53389323e-001 
449 1060.73 9.34715932e+000 1.54206179e-001 
448 1062.48 9.14570883e+000 1.45299323e-001 
447 1064.23 9.27926297e+000 1.52448078e-001 
446 1065.97 8.97324331e+000 1.42310581e-001 
445 1067.71 9.00768140e+000 1.50810782e-001 
444 1069.46 8.79870481e+000 1.46165457e-001 
443 1071.19 8.91544755e+000 1.38551604e-001 
442 1072.93 8.74210416e+000 1.36330595e-001 
441 1074.67 8.85586764e+000 1.32244023e-001 
440 1076.40 8.65999685e+000 1.17363960e-001 
439 1078.13 8.70423408e+000 1.13677146e-001 
438 1079.86 8.46276284e+000 9.70971678e-002 
437 1081.58 8.53654542e+000 9.86810737e-002 
436 1083.31 8.39216832e+000 1.10364214e-001 
435 1085.03 8.56685092e+000 1.13636047e-001 
434 1086.75 8.48421280e+000 1.17611912e-001 
433 1088.47 8.63214077e+000 1.34431053e-001 
432 1090.19 8.53770079e+000 1.38475414e-001 
431 1091.90 8.66049303e+000 1.31722272e-001 
430 1093.61 8.53430232e+000 1.20395703e-001 
429 1095.33 8.76715808e+000 1.17356683e-001 
428 1097.03 8.82755918e+000 1.10646663e-001 
427 1098.74 9.08923065e+000 1.17211575e-001 
426 1100.45 9.08872903e+000 1.18892773e-001 
425 1102.15 9.38579785e+000 1.41148529e-001 
424 1103.85 9.37590904e+000 1.45640786e-001 
423 1105.55 9.61538644e+000 1.46173875e-001 
422 1107.25 9.50212004e+000 1.32817631e-001 
421 1108.94 9.58673125e+000 1.31838558e-001 
420 1110.64 9.25256178e+000 1.41632507e-001 
419 1112.33 9.10287434e+000 1.80553412e-001 
418 1114.02 8.57187280e+000 2.37282830e-001 
417 1115.70 8.43133903e+000 2.57286638e-001 
416 1117.39 8.12738453e+000 2.56759985e-001 
415 1119.07 8.05173557e+000 2.73173414e-001 
414 1120.76 7.85128992e+000 2.74088007e-001 
413 1122.44 7.84433723e+000 3.05114628e-001 
412 1124.12 7.81554862e+000 3.05125215e-001 
411 1125.79 8.13257473e+000 2.83887018e-001 
410 1127.47 8.35246014e+000 2.78597140e-001 
409 1129.14 8.77746018e+000 2.52883240e-001 
408 1130.81 8.23004074e+000 2.85286401e-001 
407 1132.48 7.98617977e+000 3.05185271e-001 
406 1134.15 7.83409747e+000 2.85324377e-001 
405 1135.81 8.28014620e+000 2.53997397e-001 
404 1137.48 9.00996021e+000 1.87508537e-001 
403 1139.14 9.35325398e+000 1.68636564e-001 
402 1140.80 9.03823405e+000 1.81298196e-001 
401 1142.46 8.90545271e+000 2.07679629e-001 
400 1144.12 8.55294352e+000 2.27240140e-001 
399 1145.77 8.54611465e+000 2.42330635e-001 
398 1147.43 8.54351024e+000 2.40456009e-001 
397 1149.08 8.78548364e+000 2.14706846e-001 
396 1150.73 8.76457882e+000 1.91924840e-001 
395 1152.38 9.03654557e+000 1.76153675e-001 
394 1154.02 9.03125696e+000 1.64880717e-001 
393 1155.67 9.32418365e+000 1.55387771e-001 
392 1157.31 9.27297084e+000 1.43085715e-001 
391 1158.95 9.45147249e+000 1.36521236e-001 
390 1160.59 9.44070329e+000 1.32112809e-001 
389 1162.23 9.62545784e+000 1.41898071e-001 
388 1163.87 9.54121393e+000 1.39321505e-001 
387 1165.50 9.60921823e+000 1.44384823e-001 
386 1167.13 9.47490289e+000 1.49320131e-001 
385 1168.76 9.57360056e+000 1.57157064e-001 
384 1170.39 9.42999184e+000 1.45157838e-001 
383 1172.02 9.42751002e+000 1.33182339e-001 
382 1173.65 9.24481806e+000 1.26128256e-001 
381 1175.27 9.25737583e+000 1.23569641e-001 
380 1176.90 9.16629315e+000 1.19655273e-001 
379 1178.52 9.13009456e+000 1.20992131e-001 
378 1180.14 8.89938677e+000 1.13506920e-001 
377 1181.75 8.87456323e+000 1.16654947e-001 
376 1183.37 8.68211241e+000 1.11768807e-001 
375 1184.99 8.71605537e+000 1.05320658e-001 
374 1186.60 8.60272780e+000 8.98557086e-002 
373 1188.21 8.56517503e+000 8.24254101e-002 
372 1189.82 8.44207993e+000 8.22276467e-002 
371 1191.43 8.61639268e+000 1.03724687e-001 
370 1193.04 8.48871244e+000 1.17699889e-001 
369 1194.64 8.48337259e+000 1.09031000e-001 
368 1196.24 8.29422560e+000 1.06418210e-001 
367 1197.85 8.34708480e+000 1.05423557e-001 
366 1199.45 8.23073645e+000 9.93327662e-002 
365 1201.05 8.31415481e+000 9.56011157e-002 
364 1202.64 8.24228298e+000 8.84078504e-002 
363 1204.24 8.28389405e+000 8.17201406e-002 
362 1205.83 8.20736535e+000 7.63531172e-002 
361 1207.43 8.21781570e+000 7.70429965e-002 
360 1209.02 8.14787393e+000 8.47789809e-002 
359 1210.61 8.26631830e+000 9.84743857e-002 
358 1212.19 8.23402273e+000 1.16348857e-001 
357 1213.78 8.38494641e+000 1.14401102e-001 
356 1215.37 8.33002445e+000 1.01043533e-001 
355 1216.95 8.41367363e+000 9.93793262e-002 
354 1218.53 8.37424673e+000 9.27442499e-002 
353 1220.11 8.44888947e+000 9.00623442e-002 
352 1221.69 8.39727412e+000 8.63930957e-002 
351 1223.27 8.43995346e+000 8.70481340e-002 
350 1224.84 8.43829323e+000 9.88972900e-002 
349 1226.42 8.50639352e+000 1.09116186e-001 
348 1227.99 8.46047334e+000 1.15643696e-001 
347 1229.56 8.57395182e+000 1.21983764e-001 
346 1231.13 8.53138686e+000 1.31718963e-001 
345 1232.70 8.65168658e+000 1.40516683e-001 
344 1234.27 8.62556358e+000 1.27496906e-001 
343 1235.84 8.64001396e+000 1.15863751e-001 
342 1237.40 8.57195892e+000 9.40529844e-002 
341 1238.96 8.59156660e+000 8.17383635e-002 
340 1240.52 8.45782025e+000 9.03804532e-002 
339 1242.08 8.59109473e+000 1.03433199e-001 
338 1243.64 8.53885611e+000 9.81728441e-002 
337 1245.20 8.56086249e+000 8.58322193e-002 
336 1246.75 8.50931085e+000 8.78131167e-002 
335 1248.31 8.57221654e+000 9.65218145e-002 
334 1249.86 8.52669023e+000 1.00493853e-001 
333 1251.41 8.56702419e+000 1.07150981e-001 
332 1252.96 8.46693205e+000 1.02552148e-001 
331 1254.51 8.47829839e+000 1.09337374e-001 
330 1256.06 8.38858462e+000 1.05517272e-001 
329 1257.61 8.35483449e+000 8.32193366e-002 
328 1259.15 8.24143413e+000 7.01393624e-002 
327 1260.69 8.20036199e+000 7.07297494e-002 
326 1262.23 8.08330715e+000 7.07131191e-002 
325 1263.77 8.06823355e+000 7.15567095e-002 
324 1265.31 7.85221580e+000 8.49303441e-002 
323 1266.85 7.84050268e+000 9.35724058e-002 
322 1268.39 7.86959891e+000 8.72024306e-002 
321 1269.92 7.98352160e+000 8.51298132e-002 
320 1271.46 8.18435352e+000 8.87763713e-002 
319 1272.99 8.25442945e+000 9.45832482e-002 
318 1274.52 8.25165205e+000 8.95283045e-002 
317 1276.05 8.32242331e+000 8.22176176e-002 
316 1277.58 8.18689054e+000 7.81312352e-002 
315 1279.10 8.02222726e+000 7.87937511e-002 
314 1280.63 7.95835746e+000 8.33178581e-002 
313 1282.15 7.95091528e+000 8.68037629e-002 
312 1283.68 8.03607315e+000 8.96317454e-002 
311 1285.20 8.19929361e+000 8.52037187e-002 
310 1286.72 8.13986564e+000 8.12369100e-002 
309 1288.24 8.14961282e+000 8.28755489e-002 
308 1289.75 8.05604104e+000 8.56820098e-002 
307 1291.27 8.09571497e+000 9.59095233e-002 
306 1292.78 8.11072682e+000 1.07073874e-001 
305 1294.30 8.09397942e+000 1.16698258e-001 
304 1295.81 8.00332404e+000 1.22727404e-001 
303 1297.32 7.99175813e+000 1.37559141e-001 
302 1298.83 7.93908134e+000 1.44678794e-001 
301 1300.34 7.88722783e+000 1.36985090e-001 
300 1301.85 7.83995361e+000 1.28678468e-001 
299 1303.35 7.80489041e+000 1.26683631e-001 
298 1304.86 7.72299711e+000 1.21317703e-001 
297 1306.36 7.71114864e+000 1.11253666e-001 
296 1307.86 7.66029642e+000 9.87739836e-002 
295 1309.36 7.58542171e+000 8.32590625e-002 
294 1310.86 7.49548651e+000 8.06391433e-002 
293 1312.36 7.41284157e+000 8.31245953e-002 
292 1313.86 7.32620104e+000 8.84649874e-002 
291 1315.36 7.30626943e+000 9.61536971e-002 
290 1316.85 7.25037121e+000 1.01960839e-001 
289 1318.34 7.21436197e+000 1.12854618e-001 
288 1319.84 7.15893789e+000 1.17088401e-001 
287 1321.33 7.17237139e+000 1.16849098e-001 
286 1322.82 7.12535203e+000 1.10584813e-001 
285 1324.30 7.09686818e+000 1.11812616e-001 
284 1325.79 6.95417262e+000 1.12394433e-001 
283 1327.28 6.80784268e+000 1.22946494e-001 
282 1328.76 6.58493780e+000 1.35724301e-001 
281 1330.25 6.49644540e+000 1.46773747e-001 
280 1331.73 6.42918511e+000 1.54337220e-001 
279 1333.21 6.41155115e+000 1.47370852e-001 
278 1334.69 6.40397793e+000 1.40105352e-001 
277 1336.17 6.35484541e+000 1.39004138e-001 
276 1337.65 6.26119710e+000 1.35643890e-001 
275 1339.12 6.21708279e+000 1.23677209e-001 
274 1340.60 6.07280763e+000 1.41267071e-001 
273 1342.07 5.87539601e+000 1.63914904e-001 
272 1343.55 5.61026341e+000 1.71459701e-001 
271 1345.02 5.03634785e+000 2.12360315e-001 
270 1346.49 4.68713162e+000 2.22942443e-001 
269 1347.96 4.28020111e+000 2.54357369e-001 
268 1349.43 3.85105981e+000 2.72763476e-001 
267 1350.89 3.41518898e+000 2.95780984e-001 
266 1352.36 2.83616188e+000 3.27534916e-001 
265 1353.82 2.53854773e+000 2.96896492e-001 
264 1355.29 2.11262765e+000 3.72844446e-001 
263 1356.75 1.88715001e+000 3.85706064e-001 
262 1358.21 1.45572765e+000 4.31625033e-001 
261 1359.67 1.17838969e+000 3.90305258e-001 
260 1361.13 1.01362264e+000 3.95310265e-001 
259 1362.59 1.02151092e+000 3.91227732e-001 
258 1364.04 1.16730559e+000 4.15548719e-001 
257 1365.50 1.16930398e+000 4.16765839e-001 
256 1366.95 1.13627997e+000 4.68696446e-001 
255 1368.41 1.04447677e+000 5.00792307e-001 
254 1369.86 1.09543753e+000 4.80008078e-001 
253 1371.31 1.42902475e+000 4.13453062e-001 
252 1372.76 1.66824167e+000 3.36513083e-001 
251 1374.21 2.04918698e+000 2.09569537e-001 
250 1375.65 2.07831969e+000 1.95580199e-001 
249 1377.10 1.90571318e+000 1.76069824e-001 
248 1378.55 1.51918521e+000 1.88726056e-001 
247 1379.99 1.12134468e+000 2.17165145e-001 
246 1381.43 8.26008731e-001 2.80381219e-001 
245 1382.87 7.87510867e-001 3.22354795e-001 
244 1384.32 1.00709237e+000 2.85716197e-001 
243 1385.75 1.37414444e+000 2.20502239e-001 
242 1387.19 1.78360709e+000 1.48666550e-001 
241 1388.63 2.05001454e+000 1.01776361e-001 
240 1390.07 2.06382207e+000 1.00477020e-001 
239 1391.50 1.96009968e+000 1.21530935e-001 
238 1392.94 1.51100883e+000 1.74672393e-001 
237 1394.37 1.55806430e+000 1.58689855e-001 
236 1395.80 1.74183982e+000 1.39295720e-001 
235 1397.23 1.65268845e+000 1.18540543e-001 
234 1398.66 1.76299431e+000 1.57746305e-001 
233 1400.09 1.89820960e+000 1.43274241e-001 
232 1401.52 1.67503439e+000 1.66876859e-001 
231 1402.94 1.90685249e+000 1.59516185e-001 
230 1404.37 2.08099045e+000 1.10852013e-001 
229 1405.79 2.03085966e+000 4.14306903e-002 
228 1407.22 2.07752574e+000 8.27523239e-002 
227 1408.64 2.16975465e+000 1.67321185e-001 
226 1410.06 2.30644317e+000 2.09869681e-001 
225 1411.48 2.29191706e+000 2.27543056e-001 
224 1412.90 2.48147391e+000 2.18485699e-001 
223 1414.32 2.63891167e+000 1.98176405e-001 
222 1415.73 2.57224093e+000 1.90987754e-001 
221 1417.15 2.63966298e+000 1.84422477e-001 
220 1418.56 2.77906999e+000 1.72825690e-001 
219 1419.98 2.72634849e+000 1.85671243e-001 
218 1421.39 2.87531138e+000 1.76032961e-001 
217 1422.80 3.10979938e+000 1.60419781e-001 
216 1424.21 3.14884967e+000 1.59932160e-001 
215 1425.62 3.11630183e+000 1.68536501e-001 
214 1427.03 3.21268226e+000 1.76668100e-001 
213 1428.44 3.04926026e+000 1.85910344e-001 
212 1429.84 2.91030530e+000 1.89320698e-001 
211 1431.25 2.94516362e+000 1.78465682e-001 
210 1432.65 2.96171230e+000 1.85210919e-001 
209 1434.06 3.02809141e+000 1.79445490e-001 
208 1435.46 3.13478588e+000 1.73943760e-001 
207 1436.86 3.17229015e+000 1.65716686e-001 
206 1438.26 3.20999327e+000 1.58615181e-001 
205 1439.66 3.27891654e+000 1.38022450e-001 
204 1441.05 3.45377170e+000 1.20810824e-001 
203 1442.45 3.38178508e+000 1.24694548e-001 
202 1443.85 3.37659011e+000 1.26938355e-001 
201 1445.24 3.48273522e+000 1.34011621e-001 
200 1446.64 3.50705731e+000 1.42388036e-001 
199 1448.03 3.42193357e+000 1.59099906e-001 
198 1449.42 3.50720469e+000 1.60055526e-001 
197 1450.81 3.53004039e+000 1.55048860e-001 
196 1452.20 3.59517064e+000 1.46753371e-001 
195 1453.59 3.86811108e+000 1.08486205e-001 
194 1454.97 4.08621804e+000 9.50409344e-002 
193 1456.36 4.11477070e+000 8.94548145e-002 
192 1457.75 4.15746573e+000 8.84166761e-002 
191 1459.13 4.10989793e+000 8.88136072e-002 
190 1460.51 4.05593379e+000 1.04683999e-001 
189 1461.90 3.89279952e+000 1.13970613e-001 
188 1463.28 3.79243627e+000 1.20249527e-001 
187 1464.66 3.67087528e+000 1.23836400e-001 
186 1466.04 3.68673453e+000 1.17549176e-001 
185 1467.41 3.53359046e+000 1.23507687e-001 
184 1468.79 3.46457377e+000 1.28150364e-001 
183 1470.17 3.40680697e+000 1.30447211e-001 
182 1471.54 3.43276908e+000 1.37262356e-001 
181 1472.92 3.52759696e+000 1.22228824e-001 
180 1474.29 3.67548067e+000 1.08826560e-001 
179 1475.66 3.69293870e+000 1.03124508e-001 
178 1477.03 3.63978770e+000 1.06613754e-001 
177 1478.40 3.59081324e+000 1.09206630e-001 
176 1479.77 3.65923927e+000 1.01906041e-001 
175 1481.14 3.66871065e+000 9.65583584e-002 
174 1482.51 3.77426537e+000 9.06398741e-002 
173 1483.87 3.77128241e+000 9.18094544e-002 
172 1485.24 3.75940606e+000 8.85660833e-002 
171 1486.60 3.71500027e+000 8.36029005e-002 
170 1487.96 3.77576486e+000 7.79711585e-002 
169 1489.32 3.79802968e+000 6.90214299e-002 
168 1490.69 3.95948676e+000 6.59223920e-002 
167 1492.04 3.95566581e+000 6.77582431e-002 
166 1493.40 4.00207845e+000 7.32098390e-002 
165 1494.76 3.99015445e+000 7.12512488e-002 
164 1496.12 4.03821999e+000 6.99943364e-002 
163 1497.47 4.01929735e+000 6.52526977e-002 
162 1498.83 4.09524199e+000 6.15550286e-002 
161 1500.18 3.95341358e+000 5.70064832e-002 
160 1501.53 3.87334435e+000 5.07038069e-002 
159 1502.89 3.76779139e+000 4.80475298e-002 
158 1504.24 3.80068900e+000 4.89131530e-002 
157 1505.59 3.83045402e+000 4.89427356e-002 
156 1506.93 3.96323068e+000 4.56210663e-002 
155 1508.28 4.00090274e+000 4.49033287e-002 
154 1509.63 4.04233766e+000 5.04023395e-002 
153 1510.97 3.99837221e+000 5.18595804e-002 
152 1512.32 4.04775282e+000 5.11284385e-002 
151 1513.66 3.97265038e+000 5.09725653e-002 
150 1515.00 4.01814803e+000 5.05018282e-002 
149 1516.34 3.97353143e+000 4.90812464e-002 
148 1517.69 3.99080302e+000 4.74001336e-002 
147 1519.02 3.93365972e+000 4.58909924e-002 
146 1520.36 3.95426556e+000 4.61383555e-002 
145 1521.70 3.90408508e+000 4.27457316e-002 
144 1523.04 3.96900107e+000 3.79765387e-002 
143 1524.37 3.93499647e+000 4.15978648e-002 
142 1525.71 3.97269651e+000 5.18790735e-002 
141 1527.04 3.90356266e+000 5.93375590e-002 
140 1528.37 3.93123372e+000 6.10990273e-002 
139 1529.70 3.85598726e+000 6.46645999e-002 
138 1531.03 3.89208187e+000 5.92156936e-002 
137 1532.36 3.82959409e+000 5.20333921e-002 
136 1533.69 3.86540606e+000 4.51147169e-002 
135 1535.02 3.80541708e+000 4.43165038e-002 
134 1536.34 3.84488491e+000 4.21197198e-002 
133 1537.67 3.77246248e+000 4.32365259e-002 
132 1538.99 3.80257280e+000 4.10720109e-002 
131 1540.31 3.74131408e+000 4.39465859e-002 
130 1541.64 3.78898620e+000 4.16012304e-002 
129 1542.96 3.74860448e+000 4.54868463e-002 
128 1544.28 3.79036053e+000 4.65205537e-002 
127 1545.60 3.71670933e+000 4.94582259e-002 
126 1546.91 3.75662133e+000 5.79125557e-002 
125 1548.23 3.66902987e+000 6.16621402e-002 
124 1549.55 3.70221246e+000 5.80123615e-002 
123 1550.86 3.62610048e+000 5.03606974e-002 
122 1552.18 3.63958239e+000 4.19148878e-002 
121 1553.49 3.56055988e+000 4.47077965e-002 
120 1554.80 3.59793051e+000 4.80195251e-002 
119 1556.11 3.51811847e+000 4.73398822e-002 
118 1557.42 3.55708670e+000 4.00551329e-002 
117 1558.73 3.48535927e+000 2.97403800e-002 
116 1560.04 3.50397980e+000 2.96197581e-002 
115 1561.34 3.42553321e+000 3.97832466e-002 
114 1562.65 3.47964096e+000 4.48656797e-002 
113 1563.95 3.41118576e+000 4.12712989e-002 
112 1565.26 3.46864682e+000 2.58308646e-002 
111 1566.56 3.35703546e+000 1.84869232e-002 
110 1567.86 3.36544894e+000 2.78021792e-002 
109 1569.16 3.24629356e+000 3.00962291e-002 
108 1570.46 3.23243740e+000 2.88398849e-002 
107 1571.76 3.13345774e+000 3.43043305e-002 
106 1573.05 3.13098514e+000 3.93301182e-002 
105 1574.35 3.03322171e+000 4.12268462e-002 
104 1575.64 3.06778642e+000 3.66439458e-002 
103 1576.94 3.02607755e+000 2.98349362e-002 
102 1578.23 3.08334566e+000 2.81949281e-002 
101 1579.52 3.04547674e+000 3.20690801e-002 
100 1580.81 3.10427997e+000 3.26708604e-002 
99 1582.10 3.04803658e+000 3.39600066e-002 
98 1583.39 3.10754586e+000 4.10889007e-002 
97 1584.68 3.03720226e+000 4.79317698e-002 
96 1585.97 3.03902062e+000 5.11140755e-002 
95 1587.25 2.93753571e+000 4.48509778e-002 
94 1588.54 2.94871103e+000 4.51983853e-002 
93 1589.82 2.87454305e+000 4.45056637e-002 
92 1591.10 2.95138103e+000 4.52347648e-002 
91 1592.38 2.91020047e+000 4.30933279e-002 
90 1593.66 2.97199659e+000 4.30349728e-002 
89 1594.94 2.89982626e+000 3.98150425e-002 
88 1596.22 2.92769341e+000 3.38029813e-002 
87 1597.50 2.83113539e+000 2.80716326e-002 
86 1598.77 2.85292211e+000 2.55849412e-002 
85 1600.05 2.75553524e+000 2.06639705e-002 
84 1601.32 2.78023136e+000 2.22326969e-002 
83 1602.59 2.70023830e+000 2.69567749e-002 
82 1603.86 2.75409822e+000 2.97677984e-002 
81 1605.13 2.65077289e+000 3.17191934e-002 
80 1606.40 2.70272330e+000 2.84523538e-002 
79 1607.67 2.61074884e+000 2.45125427e-002 
78 1608.94 2.66206126e+000 2.00856728e-002 
77 1610.20 2.61182037e+000 2.07491318e-002 
76 1611.47 2.67766536e+000 1.90080303e-002 
75 1612.73 2.61854097e+000 1.72096635e-002 
74 1614.00 2.66316453e+000 1.96985639e-002 
73 1615.26 2.58068815e+000 2.51498193e-002 
