% C0 (TOA Count Rate, /ms) for 4STAR VIS spectrometer (1044 channels) derived from 20141002starsun_R2.mat and recorded on 2015-10-20 17:03:43.
% Data outside 2.0x the STD of 501 nm Langley residuals were screened out.
Pix Wavelength C0 C0err
0 173.18 -1.00000000e+00 -1.00000000e+00 
1 173.97 6.15299322e+12 9.22948982e+10 
2 174.77 -4.03946238e+12 -6.05919357e+10 
3 175.56 3.18398459e+11 4.77597688e+09 
4 176.36 8.73884495e+14 1.31082674e+13 
5 177.15 6.20675090e+14 9.31012635e+12 
6 177.94 3.20243498e+14 4.80365246e+12 
7 178.74 8.74613238e+13 1.31191986e+12 
8 179.53 2.40153702e+13 3.60230552e+11 
9 180.33 1.42920705e+13 2.14381057e+11 
10 181.12 9.25481377e+12 1.38822207e+11 
11 181.92 5.78924640e+12 8.68386960e+10 
12 182.71 4.49634159e+12 6.74451238e+10 
13 183.51 3.24371319e+12 4.86556979e+10 
14 184.30 2.14766025e+12 3.22149037e+10 
15 185.10 1.55662444e+12 2.33493666e+10 
16 185.89 1.04939809e+12 1.57409714e+10 
17 186.69 6.58378202e+11 9.87567302e+09 
18 187.49 4.76660035e+11 7.14990052e+09 
19 188.28 3.06505999e+11 4.59758998e+09 
20 189.08 2.15294311e+11 3.22941467e+09 
21 189.88 1.44562969e+11 2.16844454e+09 
22 190.67 9.33714188e+10 1.40057128e+09 
23 191.47 6.50103295e+10 9.75154942e+08 
24 192.27 4.06636798e+10 6.09955197e+08 
25 193.07 2.74521924e+10 4.11782886e+08 
26 193.86 1.85552755e+10 2.78329133e+08 
27 194.66 1.19126640e+10 1.78689960e+08 
28 195.46 9.18392443e+09 1.37758866e+08 
29 196.26 5.79720443e+09 8.69580665e+07 
30 197.05 2.23431384e+10 3.35147076e+08 
31 197.85 3.38182982e+14 5.07274472e+12 
32 198.65 2.58568383e+14 3.87852574e+12 
33 199.45 1.45391813e+14 2.18087719e+12 
34 200.25 8.21020461e+13 1.23153069e+12 
35 201.05 4.35438278e+13 6.53157416e+11 
36 201.85 2.33322148e+13 3.49983223e+11 
37 202.64 1.35508530e+13 2.03262796e+11 
38 203.44 7.25510618e+12 1.08826593e+11 
39 204.24 3.82648013e+12 5.73972019e+10 
40 205.04 2.22261952e+12 3.33392929e+10 
41 205.84 1.20912539e+12 1.81368809e+10 
42 206.64 6.89606185e+11 1.03440928e+10 
43 207.44 3.70403951e+11 5.55605926e+09 
44 208.24 1.97812921e+11 2.96719381e+09 
45 209.04 1.39955525e+14 2.09933287e+12 
46 209.84 6.34947346e+17 9.52421019e+15 
47 210.64 7.35398550e+18 1.10309782e+17 
48 211.44 1.99822691e+19 2.99734037e+17 
49 212.24 8.06637417e+18 1.20995613e+17 
50 213.05 9.97992949e+18 1.49698942e+17 
51 213.85 3.65096450e+19 5.47644675e+17 
52 214.65 6.38431622e+19 9.57647433e+17 
53 215.45 4.10095316e+20 6.15142974e+18 
54 216.25 5.19163308e+20 7.78744961e+18 
55 217.05 1.72539603e+20 2.58809405e+18 
56 217.85 2.34033661e+20 3.51050492e+18 
57 218.65 6.47502181e+19 9.71253271e+17 
58 219.46 1.54574334e+19 2.31861502e+17 
59 220.26 3.77626250e+18 5.66439375e+16 
60 221.06 8.52004564e+17 1.27800685e+16 
61 221.86 2.07092034e+17 3.10638051e+15 
62 222.66 4.94890689e+16 7.42336033e+14 
63 223.47 1.16174148e+16 1.74261222e+14 
64 224.27 2.86515624e+15 4.29773435e+13 
65 225.07 6.65114413e+14 9.97671620e+12 
66 225.87 1.59032707e+14 2.38549060e+12 
67 226.68 3.77763600e+13 5.66645399e+11 
68 227.48 9.52060856e+12 1.42809128e+11 
69 228.28 2.58167766e+12 3.87251649e+10 
70 229.09 8.72350285e+11 1.30852543e+10 
71 229.89 4.83082074e+11 7.24623111e+09 
72 230.69 4.71324860e+11 7.06987291e+09 
73 231.49 8.97198983e+11 1.34579847e+10 
74 232.30 2.90713132e+12 4.36069698e+10 
75 233.10 1.29444408e+13 1.94166611e+11 
76 233.91 6.54992467e+13 9.82488700e+11 
77 234.71 3.38690366e+14 5.08035549e+12 
78 235.51 1.96883029e+15 2.95324543e+13 
79 236.32 1.06684790e+16 1.60027185e+14 
80 237.12 6.04815926e+16 9.07223888e+14 
81 237.92 3.47658524e+17 5.21487785e+15 
82 238.73 2.08049152e+18 3.12073729e+16 
83 239.53 1.20709314e+19 1.81063971e+17 
84 240.34 6.72195604e+19 1.00829341e+18 
85 241.14 3.48064171e+20 5.22096256e+18 
86 241.94 2.54426214e+20 3.81639321e+18 
87 242.75 7.82492562e+20 1.17373884e+19 
88 243.55 5.38366404e+20 8.07549606e+18 
89 244.36 8.80466163e+19 1.32069924e+18 
90 245.16 5.97759607e+19 8.96639410e+17 
91 245.97 1.83137657e+19 2.74706485e+17 
92 246.77 1.11494194e+19 1.67241291e+17 
93 247.58 1.90452534e+19 2.85678800e+17 
94 248.38 2.93533953e+19 4.40300929e+17 
95 249.19 1.24311413e+19 1.86467119e+17 
96 249.99 5.51296289e+18 8.26944433e+16 
97 250.80 1.61842461e+18 2.42763692e+16 
98 251.60 6.29505443e+17 9.44258164e+15 
99 252.41 8.63576206e+16 1.29536431e+15 
100 253.21 2.11078039e+16 3.16617059e+14 
101 254.02 4.07104834e+15 6.10657250e+13 
102 254.83 5.25775178e+14 7.88662766e+12 
103 255.63 7.21454522e+14 1.08218178e+13 
104 256.44 1.32573668e+16 1.98860502e+14 
105 257.24 1.27978637e+17 1.91967955e+15 
106 258.05 6.00569582e+17 9.00854373e+15 
107 258.85 1.36786334e+18 2.05179502e+16 
108 259.66 6.95106732e+18 1.04266010e+17 
109 260.46 1.78634433e+19 2.67951649e+17 
110 261.27 3.81506137e+19 5.72259205e+17 
111 262.08 1.80310492e+19 2.70465739e+17 
112 262.88 1.14846132e+19 1.72269198e+17 
113 263.69 4.84230979e+19 7.26346469e+17 
114 264.50 5.86714457e+19 8.80071685e+17 
115 265.30 2.79013400e+20 4.18520101e+18 
116 266.11 1.25969037e+21 1.88953556e+19 
117 266.91 5.17752583e+20 7.76628874e+18 
118 267.72 3.33657576e+20 5.00486364e+18 
119 268.53 1.25304946e+20 1.87957419e+18 
120 269.33 2.06640513e+19 3.09960769e+17 
121 270.14 3.87044365e+18 5.80566548e+16 
122 270.95 6.96993409e+17 1.04549011e+16 
123 271.75 1.14062244e+17 1.71093366e+15 
124 272.56 1.78621217e+16 2.67931825e+14 
125 273.37 2.59291229e+15 3.88936843e+13 
126 274.17 3.64417645e+14 5.46626468e+12 
127 274.98 5.78245426e+13 8.67368140e+11 
128 275.79 1.00615231e+13 1.50922846e+11 
129 276.59 1.81157560e+12 2.71736340e+10 
130 277.40 3.52089875e+11 5.28134813e+09 
131 278.21 6.33761678e+10 9.50642517e+08 
132 279.01 1.23880863e+10 1.85821295e+08 
133 279.82 2.41204185e+09 3.61806278e+07 
134 280.63 4.98997223e+08 7.48495834e+06 
135 281.44 1.02945557e+08 1.54418336e+06 
136 282.24 2.45625725e+07 3.68438588e+05 
137 283.05 6.28113234e+06 9.42169852e+04 
138 283.86 1.89520638e+06 2.84280957e+04 
139 284.66 5.58931067e+05 8.38396601e+03 
140 285.47 1.67874673e+05 2.51812009e+03 
141 286.28 6.24335629e+04 9.36503443e+02 
142 287.09 2.31889224e+04 3.47833836e+02 
143 287.89 8.60118940e+03 1.29017841e+02 
144 288.70 3.63347377e+03 5.45021066e+01 
145 289.51 1.59702415e+03 2.39553622e+01 
146 290.32 7.49909906e+02 1.12486486e+01 
147 291.12 3.76839073e+02 5.65258609e+00 
148 291.93 1.92672666e+02 2.89008999e+00 
149 292.74 1.05963289e+02 1.58944934e+00 
150 293.55 6.50725781e+01 9.76088671e-01 
151 294.35 3.84459177e+01 5.76688766e-01 
152 295.16 2.40153396e+01 3.60230094e-01 
153 295.97 1.58724644e+01 2.38086965e-01 
154 296.78 1.09432483e+01 1.64148725e-01 
155 297.58 7.68837375e+00 1.15325606e-01 
156 298.39 5.49591422e+00 8.24387133e-02 
157 299.20 4.27650482e+00 6.41475723e-02 
158 300.01 3.18508846e+00 4.77763269e-02 
159 300.81 2.67998050e+00 4.01997075e-02 
160 301.62 2.20968482e+00 3.31452722e-02 
161 302.43 1.81540626e+00 2.72310939e-02 
162 303.24 1.59702526e+00 2.39553790e-02 
163 304.05 1.38756183e+00 2.08134274e-02 
164 304.85 1.20969041e+00 1.81453561e-02 
165 305.66 1.06643594e+00 1.59965391e-02 
166 306.47 9.53691483e-01 1.43053723e-02 
167 307.28 8.69725658e-01 1.30458849e-02 
168 308.08 8.13376986e-01 1.22006548e-02 
169 308.89 7.88491308e-01 1.18273696e-02 
170 309.70 7.17380895e-01 1.07607134e-02 
171 310.51 6.61166823e-01 9.91750234e-03 
172 311.32 6.50397380e-01 9.75596070e-03 
173 312.12 6.16206444e-01 9.24309666e-03 
174 312.93 5.90307469e-01 8.85461203e-03 
175 313.74 5.75747116e-01 8.63620675e-03 
176 314.55 5.73452902e-01 8.60179353e-03 
177 315.36 5.47203986e-01 8.20805979e-03 
178 316.16 5.49618459e-01 8.24427689e-03 
179 316.97 5.61683543e-01 8.42525315e-03 
180 317.78 5.39170261e-01 8.08755391e-03 
181 318.59 5.52573461e-01 8.28860191e-03 
182 319.39 5.50146546e-01 8.25219819e-03 
183 320.20 5.50939324e-01 8.26408986e-03 
184 321.01 5.58439316e-01 8.37658973e-03 
185 321.82 5.71151011e-01 8.56726517e-03 
186 322.63 5.95424941e-01 8.93137412e-03 
187 323.43 5.78818749e-01 8.68228123e-03 
188 324.24 5.91230540e-01 8.86845810e-03 
189 325.05 6.09810519e-01 9.14715778e-03 
190 325.86 6.19116068e-01 9.28674102e-03 
191 326.67 6.38158313e-01 9.57237469e-03 
192 327.48 6.60357166e-01 9.90535750e-03 
193 328.28 6.64876658e-01 9.97314987e-03 
194 329.09 7.19093993e-01 1.07864099e-02 
195 329.90 7.41916200e-01 1.11287430e-02 
196 330.71 7.63176043e-01 1.14476406e-02 
197 331.51 8.27979270e-01 1.24196890e-02 
198 332.32 9.13766735e-01 1.37065010e-02 
199 333.13 1.09863159e+00 1.64794739e-02 
200 333.94 1.44923581e+00 2.17385372e-02 
201 334.75 2.05359061e+00 3.08038591e-02 
202 335.56 2.97593084e+00 4.46389627e-02 
203 336.36 4.29289801e+00 6.43934702e-02 
204 337.17 6.59103018e+00 9.88654526e-02 
205 337.98 9.64970374e+00 1.44745556e-01 
206 338.79 1.35232535e+01 2.02848802e-01 
207 339.59 1.78448535e+01 2.67672802e-01 
208 340.40 2.14420071e+01 3.21630107e-01 
209 341.21 2.47174407e+01 3.70761611e-01 
210 342.02 2.85245927e+01 4.27868891e-01 
211 342.83 3.15249807e+01 4.72874710e-01 
212 343.64 3.21162013e+01 4.81743020e-01 
213 344.44 3.36486396e+01 5.04729594e-01 
214 345.25 3.75980745e+01 5.63971117e-01 
215 346.06 4.10541675e+01 6.15812512e-01 
216 346.87 4.32921202e+01 6.49381803e-01 
217 347.67 4.47939159e+01 6.71908739e-01 
218 348.48 4.63853807e+01 6.95780711e-01 
219 349.29 4.94724852e+01 7.42087278e-01 
220 350.10 5.43320882e+01 8.14981322e-01 
221 350.91 5.73196737e+01 8.59795106e-01 
222 351.71 5.73194001e+01 8.59791001e-01 
223 352.52 5.87373854e+01 8.81060781e-01 
224 353.33 6.44323303e+01 9.66484954e-01 
225 354.14 7.09204478e+01 1.06380672e+00 
226 354.94 7.34450137e+01 1.10167521e+00 
227 355.75 7.18243980e+01 1.07736597e+00 
228 356.56 6.73687994e+01 1.01053199e+00 
229 357.37 6.35291170e+01 9.52936755e-01 
230 358.18 6.33509665e+01 9.50264497e-01 
231 358.98 7.18707608e+01 1.07806141e+00 
232 359.79 8.22843582e+01 1.23426537e+00 
233 360.60 8.30037284e+01 1.24505593e+00 
234 361.41 8.21675374e+01 1.23251306e+00 
235 362.21 8.69678459e+01 1.30451769e+00 
236 363.02 9.19886095e+01 1.37982914e+00 
237 363.83 9.50402244e+01 1.42560337e+00 
238 364.64 1.00271805e+02 1.50407708e+00 
239 365.44 1.09588623e+02 1.64382934e+00 
240 366.25 1.16892165e+02 1.75338247e+00 
241 367.06 1.17619294e+02 1.76428940e+00 
242 367.87 1.15982712e+02 1.73974068e+00 
243 368.67 1.18288426e+02 1.77432640e+00 
244 369.48 1.23343429e+02 1.85015144e+00 
245 370.29 1.24472248e+02 1.86708372e+00 
246 371.10 1.23241769e+02 1.84862654e+00 
247 371.90 1.19969065e+02 1.79953598e+00 
248 372.71 1.13381606e+02 1.70072410e+00 
249 373.52 1.07622556e+02 1.61433834e+00 
250 374.33 1.08019495e+02 1.62029242e+00 
251 375.13 1.16202099e+02 1.74303148e+00 
252 375.94 1.26786501e+02 1.90179752e+00 
253 376.75 1.38534501e+02 2.07801751e+00 
254 377.55 1.51277918e+02 2.26916877e+00 
255 378.36 1.53843281e+02 2.30764922e+00 
256 379.17 1.46485999e+02 2.19728998e+00 
257 379.98 1.44187536e+02 2.16281304e+00 
258 380.78 1.43146559e+02 2.14719839e+00 
259 381.59 1.29704150e+02 1.94556225e+00 
260 382.40 1.11122548e+02 1.66683822e+00 
261 383.21 1.04104566e+02 1.56156850e+00 
262 384.01 1.14238813e+02 1.71358220e+00 
263 384.82 1.28797485e+02 1.93196228e+00 
264 385.63 1.34935221e+02 2.02402831e+00 
265 386.43 1.36657476e+02 2.04986214e+00 
266 387.24 1.38094553e+02 2.07141830e+00 
267 388.05 1.41436647e+02 2.12154970e+00 
268 388.85 1.51242519e+02 2.26863778e+00 
269 389.66 1.65829928e+02 2.48744891e+00 
270 390.47 1.77327353e+02 2.65991029e+00 
271 391.27 1.77440480e+02 2.66160719e+00 
272 392.08 1.57526053e+02 2.36289079e+00 
273 392.89 1.30043205e+02 1.95064808e+00 
274 393.69 1.27558893e+02 1.91338339e+00 
275 394.50 1.52834560e+02 2.29251840e+00 
276 395.31 1.68346434e+02 2.52519651e+00 
277 396.11 1.57394573e+02 2.36091859e+00 
278 396.92 1.53663673e+02 2.30495509e+00 
279 397.73 1.83979285e+02 2.75968928e+00 
280 398.53 2.25709370e+02 3.38564055e+00 
281 399.34 2.52120157e+02 3.78180236e+00 
282 400.15 2.65630609e+02 3.98445913e+00 
283 400.95 2.75383597e+02 4.13075396e+00 
284 401.76 2.82521610e+02 4.23782414e+00 
285 402.57 2.84579823e+02 4.26869734e+00 
286 403.37 2.83203702e+02 4.24805552e+00 
287 404.18 2.81952449e+02 4.22928674e+00 
288 404.98 2.80591217e+02 4.20886826e+00 
289 405.79 2.79319125e+02 4.18978687e+00 
290 406.60 2.80852612e+02 4.21278918e+00 
291 407.40 2.88543655e+02 4.32815483e+00 
292 408.21 2.98941940e+02 4.48412910e+00 
293 409.02 3.02169269e+02 4.53253903e+00 
294 409.82 2.99636493e+02 4.49454739e+00 
295 410.63 3.04795050e+02 4.57192574e+00 
296 411.44 3.18040688e+02 4.77061032e+00 
297 412.24 3.27063253e+02 4.90594880e+00 
298 413.05 3.29452265e+02 4.94178397e+00 
299 413.85 3.30906496e+02 4.96359744e+00 
300 414.66 3.33446109e+02 5.00169164e+00 
301 415.46 3.36797383e+02 5.05196074e+00 
302 416.27 3.38660288e+02 5.07990431e+00 
303 417.08 3.36471496e+02 5.04707244e+00 
304 417.88 3.33329420e+02 4.99994130e+00 
305 418.69 3.33104621e+02 4.99656932e+00 
306 419.49 3.36291045e+02 5.04436567e+00 
307 420.30 3.42456912e+02 5.13685368e+00 
308 421.11 3.46812336e+02 5.20218504e+00 
309 421.91 3.44788652e+02 5.17182978e+00 
310 422.72 3.40564676e+02 5.10847014e+00 
311 423.52 3.40720514e+02 5.11080771e+00 
312 424.33 3.43690681e+02 5.15536022e+00 
313 425.13 3.44447740e+02 5.16671611e+00 
314 425.94 3.42300013e+02 5.13450019e+00 
315 426.74 3.39011677e+02 5.08517516e+00 
316 427.55 3.34870325e+02 5.02305488e+00 
317 428.35 3.26007800e+02 4.89011700e+00 
318 429.16 3.08957850e+02 4.63436775e+00 
319 429.96 2.93540263e+02 4.40310394e+00 
320 430.77 2.98935701e+02 4.48403552e+00 
321 431.58 3.24511394e+02 4.86767091e+00 
322 432.38 3.49257460e+02 5.23886190e+00 
323 433.19 3.58383221e+02 5.37574832e+00 
324 433.99 3.61642018e+02 5.42463027e+00 
325 434.80 3.71118698e+02 5.56678047e+00 
326 435.60 3.85058999e+02 5.77588499e+00 
327 436.41 3.92086668e+02 5.88130002e+00 
328 437.21 3.87020768e+02 5.80531152e+00 
329 438.02 3.78459296e+02 5.67688944e+00 
330 438.82 3.76971029e+02 5.65456544e+00 
331 439.63 3.84300165e+02 5.76450247e+00 
332 440.43 3.97032684e+02 5.95549025e+00 
333 441.24 4.10050002e+02 6.15075004e+00 
334 442.04 4.21032201e+02 6.31548301e+00 
335 442.84 4.28032653e+02 6.42048979e+00 
336 443.65 4.30921317e+02 6.46381976e+00 
337 444.45 4.30096877e+02 6.45145315e+00 
338 445.26 4.27964007e+02 6.41946010e+00 
339 446.06 4.30264989e+02 6.45397484e+00 
340 446.87 4.38476118e+02 6.57714178e+00 
341 447.67 4.49103375e+02 6.73655062e+00 
342 448.48 4.57702705e+02 6.86554057e+00 
343 449.28 4.65786989e+02 6.98680484e+00 
344 450.09 4.74128008e+02 7.11192012e+00 
345 450.89 4.77599728e+02 7.16399592e+00 
346 451.69 4.71970514e+02 7.07955771e+00 
347 452.50 4.62659418e+02 6.93989127e+00 
348 453.30 4.58013353e+02 6.87020030e+00 
349 454.11 4.59948558e+02 6.89922837e+00 
350 454.91 4.66717652e+02 7.00076478e+00 
351 455.72 4.74049081e+02 7.11073621e+00 
352 456.52 4.79751600e+02 7.19627400e+00 
353 457.32 4.81957046e+02 7.22935569e+00 
354 458.13 4.80800440e+02 7.21200660e+00 
355 458.93 4.80166991e+02 7.20250487e+00 
356 459.74 4.83336020e+02 7.25004030e+00 
357 460.54 4.89424282e+02 7.34136423e+00 
358 461.34 4.95884421e+02 7.43826632e+00 
359 462.15 4.99646880e+02 7.49470321e+00 
360 462.95 4.98966646e+02 7.48449969e+00 
361 463.76 4.95551455e+02 7.43327182e+00 
362 464.56 4.92463437e+02 7.38695156e+00 
363 465.36 4.90099860e+02 7.35149790e+00 
364 466.17 4.89273889e+02 7.33910833e+00 
365 466.97 4.90459097e+02 7.35688646e+00 
366 467.77 4.93042336e+02 7.39563503e+00 
367 468.58 4.95426959e+02 7.43140438e+00 
368 469.38 4.96030044e+02 7.44045067e+00 
369 470.18 4.97274858e+02 7.45912288e+00 
370 470.99 5.02286735e+02 7.53430103e+00 
371 471.79 5.09139372e+02 7.63709058e+00 
372 472.59 5.15396766e+02 7.73095149e+00 
373 473.40 5.19939118e+02 7.79908677e+00 
374 474.20 5.22610946e+02 7.83916419e+00 
375 475.00 5.24528481e+02 7.86792722e+00 
376 475.81 5.26575493e+02 7.89863240e+00 
377 476.61 5.30018296e+02 7.95027443e+00 
378 477.41 5.35069596e+02 8.02604394e+00 
379 478.21 5.40054961e+02 8.10082441e+00 
380 479.02 5.43339211e+02 8.15008817e+00 
381 479.82 5.45243716e+02 8.17865573e+00 
382 480.62 5.47353482e+02 8.21030223e+00 
383 481.43 5.48043293e+02 8.22064939e+00 
384 482.23 5.46540878e+02 8.19811317e+00 
385 483.03 5.41859745e+02 8.12789617e+00 
386 483.84 5.31626375e+02 7.97439563e+00 
387 484.64 5.13321027e+02 7.69981541e+00 
388 485.44 4.93686637e+02 7.40529956e+00 
389 486.24 4.83815021e+02 7.25722531e+00 
390 487.05 4.87136203e+02 7.30704304e+00 
391 487.85 5.00950874e+02 7.51426312e+00 
392 488.65 5.17270472e+02 7.75905709e+00 
393 489.45 5.27784792e+02 7.91677188e+00 
394 490.26 5.30672018e+02 7.96008027e+00 
395 491.06 5.28898746e+02 7.93348120e+00 
396 491.86 5.25927961e+02 7.88891941e+00 
397 492.66 5.26076202e+02 7.89114304e+00 
398 493.46 5.31139525e+02 7.96709287e+00 
399 494.27 5.36705365e+02 8.05058047e+00 
400 495.07 5.39685954e+02 8.09528932e+00 
401 495.87 5.40643614e+02 8.10965421e+00 
402 496.67 5.37888868e+02 8.06833302e+00 
403 497.48 5.33650183e+02 8.00475274e+00 
404 498.28 5.29534689e+02 7.94302034e+00 
405 499.08 5.24093461e+02 7.86140192e+00 
406 499.88 5.18193189e+02 7.77289784e+00 
407 500.68 5.13851266e+02 7.70776899e+00 
408 501.48 5.12181994e+02 7.68272990e+00 
409 502.29 5.14041304e+02 7.71061957e+00 
410 503.09 5.17775931e+02 7.76663897e+00 
411 503.89 5.23098627e+02 7.84647940e+00 
412 504.69 5.28806668e+02 7.93210002e+00 
413 505.49 5.32579264e+02 7.98868896e+00 
414 506.29 5.32996552e+02 7.99494828e+00 
415 507.09 5.30583952e+02 7.95875929e+00 
416 507.90 5.27745961e+02 7.91618941e+00 
417 508.70 5.26377155e+02 7.89565733e+00 
418 509.50 5.26803184e+02 7.90204777e+00 
419 510.30 5.27804209e+02 7.91706313e+00 
420 511.10 5.26595373e+02 7.89893060e+00 
421 511.90 5.22886639e+02 7.84329959e+00 
422 512.70 5.17440546e+02 7.76160820e+00 
423 513.51 5.11761194e+02 7.67641791e+00 
424 514.31 5.06685947e+02 7.60028921e+00 
425 515.11 4.98341784e+02 7.47512676e+00 
426 515.91 4.85542121e+02 7.28313181e+00 
427 516.71 4.73664222e+02 7.10496333e+00 
428 517.51 4.67309475e+02 7.00964212e+00 
429 518.31 4.71003380e+02 7.06505069e+00 
430 519.11 4.82151618e+02 7.23227426e+00 
431 519.91 4.93589212e+02 7.40383817e+00 
432 520.71 5.01792685e+02 7.52689027e+00 
433 521.51 5.05199282e+02 7.57798923e+00 
434 522.32 5.07509153e+02 7.61263730e+00 
435 523.12 5.11187018e+02 7.66780527e+00 
436 523.92 5.14278994e+02 7.71418491e+00 
437 524.72 5.13237742e+02 7.69856614e+00 
438 525.52 5.06189034e+02 7.59283551e+00 
439 526.32 4.98763805e+02 7.48145708e+00 
440 527.12 4.98200490e+02 7.47300735e+00 
441 527.92 5.04927690e+02 7.57391535e+00 
442 528.72 5.15871548e+02 7.73807323e+00 
443 529.52 5.25581368e+02 7.88372053e+00 
444 530.32 5.29356632e+02 7.94034948e+00 
445 531.12 5.27008219e+02 7.90512328e+00 
446 531.92 5.22284795e+02 7.83427193e+00 
447 532.72 5.18277936e+02 7.77416904e+00 
448 533.52 5.18009326e+02 7.77013988e+00 
449 534.32 5.21766900e+02 7.82650351e+00 
450 535.12 5.25223376e+02 7.87835064e+00 
451 535.92 5.25696972e+02 7.88545458e+00 
452 536.72 5.24492761e+02 7.86739141e+00 
453 537.52 5.21947500e+02 7.82921251e+00 
454 538.32 5.18279554e+02 7.77419331e+00 
455 539.12 5.14084099e+02 7.71126149e+00 
456 539.92 5.10765192e+02 7.66147788e+00 
457 540.72 5.09792390e+02 7.64688585e+00 
458 541.52 5.11533436e+02 7.67300154e+00 
459 542.32 5.15607882e+02 7.73411823e+00 
460 543.12 5.19598974e+02 7.79398461e+00 
461 543.92 5.22338864e+02 7.83508295e+00 
462 544.72 5.23984904e+02 7.85977356e+00 
463 545.52 5.23570919e+02 7.85356379e+00 
464 546.31 5.21024638e+02 7.81536958e+00 
465 547.12 5.18190511e+02 7.77285767e+00 
466 547.91 5.16436064e+02 7.74654096e+00 
467 548.71 5.15564147e+02 7.73346221e+00 
468 549.51 5.15513044e+02 7.73269565e+00 
469 550.31 5.15287832e+02 7.72931748e+00 
470 551.11 5.14569733e+02 7.71854600e+00 
471 551.91 5.14045116e+02 7.71067673e+00 
