% C0 (TOA Count Rate, /ms) for 4STAR VIS spectrometer (1044 channels) derived from 20141002starsun.mat and recorded on 2015-02-03 15:23:51.
% Data outside 2.0x the STD of 501 nm Langley residuals were screened out.
Pix Wavelength C0 C0err
0 173.18 -1.00000000e+000 -1.00000000e+000 
1 173.97 -3.10093522e+012 -4.65140284e+010 
2 174.77 -7.08846682e+012 -1.06327002e+011 
3 175.56 2.07461008e+016 3.11191512e+014 
4 176.36 1.46235816e+014 2.19353723e+012 
5 177.15 1.08583825e+014 1.62875737e+012 
6 177.94 4.98885749e+013 7.48328624e+011 
7 178.74 1.67768785e+013 2.51653177e+011 
8 179.53 9.21427997e+012 1.38214200e+011 
9 180.33 7.83582634e+012 1.17537395e+011 
10 181.12 5.16178090e+012 7.74267134e+010 
11 181.92 3.24782962e+012 4.87174443e+010 
12 182.71 2.34519199e+012 3.51778799e+010 
13 183.51 1.62336555e+012 2.43504832e+010 
14 184.30 1.07175343e+012 1.60763014e+010 
15 185.10 7.85833875e+011 1.17875081e+010 
16 185.89 5.32234384e+011 7.98351576e+009 
17 186.69 3.37382917e+011 5.06074375e+009 
18 187.49 2.43162652e+011 3.64743978e+009 
19 188.28 1.60086423e+011 2.40129635e+009 
20 189.08 1.13086266e+011 1.69629399e+009 
21 189.88 7.56874946e+010 1.13531242e+009 
22 190.67 4.97586267e+010 7.46379401e+008 
23 191.47 3.46433357e+010 5.19650036e+008 
24 192.27 2.20278643e+010 3.30417964e+008 
25 193.07 1.52806329e+010 2.29209494e+008 
26 193.86 1.06047960e+010 1.59071939e+008 
27 194.66 6.63370341e+009 9.95055511e+007 
28 195.46 5.05954086e+009 7.58931129e+007 
29 196.26 3.33225422e+009 4.99838133e+007 
30 197.05 2.21620462e+009 3.32430692e+007 
31 197.85 1.01336788e+014 1.52005181e+012 
32 198.65 1.63473912e+014 2.45210869e+012 
33 199.45 9.24652204e+013 1.38697831e+012 
34 200.25 5.24370341e+013 7.86555512e+011 
35 201.05 2.81371923e+013 4.22057884e+011 
36 201.85 1.52067309e+013 2.28100964e+011 
37 202.64 1.05233347e+013 1.57850020e+011 
38 203.44 5.67259347e+012 8.50889020e+010 
39 204.24 2.97801897e+012 4.46702846e+010 
40 205.04 1.74357820e+012 2.61536730e+010 
41 205.84 9.50653540e+011 1.42598031e+010 
42 206.64 5.49614726e+011 8.24422088e+009 
43 207.44 2.95101649e+011 4.42652474e+009 
44 208.24 1.58838353e+011 2.38257530e+009 
45 209.04 1.08973387e+015 1.63460081e+013 
46 209.84 3.06642845e+017 4.59964268e+015 
47 210.64 1.53094877e+018 2.29642315e+016 
48 211.44 7.49936137e+018 1.12490421e+017 
49 212.24 5.69659198e+018 8.54488798e+016 
50 213.05 1.27252647e+019 1.90878970e+017 
51 213.85 1.91974262e+019 2.87961393e+017 
52 214.65 1.84065085e+019 2.76097628e+017 
53 215.45 1.38617377e+020 2.07926065e+018 
54 216.25 2.86626680e+020 4.29940019e+018 
55 217.05 1.75839730e+020 2.63759596e+018 
56 217.85 3.28677457e+020 4.93016185e+018 
57 218.65 1.36098159e+020 2.04147239e+018 
58 219.46 3.16766769e+019 4.75150153e+017 
59 220.26 7.56933753e+018 1.13540063e+017 
60 221.06 1.66969931e+018 2.50454896e+016 
61 221.86 3.95346630e+017 5.93019946e+015 
62 222.66 9.23296791e+016 1.38494519e+015 
63 223.47 2.12399424e+016 3.18599136e+014 
64 224.27 5.11672975e+015 7.67509463e+013 
65 225.07 1.15908822e+015 1.73863234e+013 
66 225.87 2.70984805e+014 4.06477208e+012 
67 226.68 6.29385803e+013 9.44078704e+011 
68 227.48 1.54987322e+013 2.32480984e+011 
69 228.28 4.12315935e+012 6.18473903e+010 
70 229.09 1.37404358e+012 2.06106538e+010 
71 229.89 7.53056412e+011 1.12958462e+010 
72 230.69 7.31551298e+011 1.09732695e+010 
73 231.49 1.40988828e+012 2.11483242e+010 
74 232.30 4.64597347e+012 6.96896020e+010 
75 233.10 2.11968218e+013 3.17952327e+011 
76 233.91 1.10189630e+014 1.65284446e+012 
77 234.71 5.84798963e+014 8.77198445e+012 
78 235.51 3.50145348e+015 5.25218022e+013 
79 236.32 1.94597393e+016 2.91896089e+014 
80 237.12 1.13744922e+017 1.70617382e+015 
81 237.92 6.72766876e+017 1.00915031e+016 
82 238.73 4.11554919e+018 6.17332379e+016 
83 239.53 2.45941536e+019 3.68912304e+017 
84 240.34 1.40901989e+020 2.11352983e+018 
85 241.14 6.56769563e+020 9.85154344e+018 
86 241.94 2.59249526e+020 3.88874289e+018 
87 242.75 3.94404154e+020 5.91606231e+018 
88 243.55 1.83952487e+020 2.75928730e+018 
89 244.36 2.59283198e+019 3.88924796e+017 
90 245.16 3.12169986e+019 4.68254978e+017 
91 245.97 2.19463881e+019 3.29195822e+017 
92 246.77 1.03920278e+019 1.55880417e+017 
93 247.58 1.12614559e+019 1.68921838e+017 
94 248.38 1.00344902e+019 1.50517353e+017 
95 249.19 3.13108782e+018 4.69663173e+016 
96 249.99 1.43298602e+018 2.14947903e+016 
97 250.80 5.16182857e+017 7.74274285e+015 
98 251.60 4.89497796e+017 7.34246694e+015 
99 252.41 1.50396413e+017 2.25594619e+015 
100 253.21 3.40297606e+016 5.10446409e+014 
101 254.02 1.10102532e+016 1.65153799e+014 
102 254.83 2.89546441e+015 4.34319662e+013 
103 255.63 3.54085823e+015 5.31128734e+013 
104 256.44 2.45973461e+016 3.68960191e+014 
105 257.24 1.99152610e+017 2.98728916e+015 
106 258.05 5.13244990e+017 7.69867485e+015 
107 258.85 4.58269577e+017 6.87404365e+015 
108 259.66 1.59481959e+018 2.39222938e+016 
109 260.46 5.58422984e+018 8.37634476e+016 
110 261.27 1.40405383e+019 2.10608075e+017 
111 262.08 1.26266567e+019 1.89399850e+017 
112 262.88 1.34263300e+019 2.01394950e+017 
113 263.69 3.38655906e+019 5.07983859e+017 
114 264.50 2.44481020e+019 3.66721530e+017 
115 265.30 7.84426440e+019 1.17663966e+018 
116 266.11 5.01012514e+020 7.51518770e+018 
117 266.91 4.13112343e+020 6.19668515e+018 
118 267.72 4.05111224e+020 6.07666836e+018 
119 268.53 2.65581967e+020 3.98372950e+018 
120 269.33 4.26563091e+019 6.39844637e+017 
121 270.14 7.72687026e+018 1.15903054e+017 
122 270.95 1.35811417e+018 2.03717125e+016 
123 271.75 2.15808483e+017 3.23712724e+015 
124 272.56 3.28814019e+016 4.93221029e+014 
125 273.37 4.62192591e+015 6.93288887e+013 
126 274.17 6.28414400e+014 9.42621600e+012 
127 274.98 9.69226362e+013 1.45383954e+012 
128 275.79 1.63772551e+013 2.45658826e+011 
129 276.59 2.86995006e+012 4.30492509e+010 
130 277.40 5.44011722e+011 8.16017583e+009 
131 278.21 9.53979380e+010 1.43096907e+009 
132 279.01 1.82035576e+010 2.73053364e+008 
133 279.82 3.44720621e+009 5.17080932e+007 
134 280.63 6.94552726e+008 1.04182909e+007 
135 281.44 1.39794313e+008 2.09691469e+006 
136 282.24 3.26023806e+007 4.89035709e+005 
137 283.05 8.17991983e+006 1.22698797e+005 
138 283.86 2.41306579e+006 3.61959868e+004 
139 284.66 6.96418841e+005 1.04462826e+004 
140 285.47 2.06208519e+005 3.09312779e+003 
141 286.28 7.54128273e+004 1.13119241e+003 
142 287.09 2.75308157e+004 4.12962235e+002 
143 287.89 1.00806527e+004 1.51209791e+002 
144 288.70 4.18042334e+003 6.27063501e+001 
145 289.51 1.81711954e+003 2.72567931e+001 
146 290.32 8.43171608e+002 1.26475741e+001 
147 291.12 4.17933452e+002 6.26900178e+000 
148 291.93 2.11517179e+002 3.17275768e+000 
149 292.74 1.15665515e+002 1.73498272e+000 
150 293.55 7.02020162e+001 1.05303024e+000 
151 294.35 4.11113042e+001 6.16669563e-001 
152 295.16 2.55515509e+001 3.83273264e-001 
153 295.97 1.67521311e+001 2.51281967e-001 
154 296.78 1.14970815e+001 1.72456222e-001 
155 297.58 8.03885355e+000 1.20582803e-001 
156 298.39 5.68893083e+000 8.53339625e-002 
157 299.20 4.41999239e+000 6.62998858e-002 
158 300.01 3.29592513e+000 4.94388769e-002 
159 300.81 2.73181654e+000 4.09772481e-002 
160 301.62 2.25834067e+000 3.38751100e-002 
161 302.43 1.84455507e+000 2.76683260e-002 
162 303.24 1.62450577e+000 2.43675866e-002 
163 304.05 1.40838765e+000 2.11258147e-002 
164 304.85 1.22982693e+000 1.84474039e-002 
165 305.66 1.07578398e+000 1.61367597e-002 
166 306.47 9.66296354e-001 1.44944453e-002 
167 307.28 8.78584299e-001 1.31787645e-002 
168 308.08 8.20485406e-001 1.23072811e-002 
169 308.89 7.94012871e-001 1.19101931e-002 
170 309.70 7.18286673e-001 1.07743001e-002 
171 310.51 6.64860954e-001 9.97291431e-003 
172 311.32 6.55965696e-001 9.83948544e-003 
173 312.12 6.18416586e-001 9.27624879e-003 
174 312.93 5.89069150e-001 8.83603725e-003 
175 313.74 5.76412341e-001 8.64618512e-003 
176 314.55 5.73954115e-001 8.60931173e-003 
177 315.36 5.47324166e-001 8.20986249e-003 
178 316.16 5.50728969e-001 8.26093454e-003 
179 316.97 5.58753940e-001 8.38130910e-003 
180 317.78 5.38756051e-001 8.08134076e-003 
181 318.59 5.51688680e-001 8.27533020e-003 
182 319.39 5.50113850e-001 8.25170775e-003 
183 320.20 5.51975146e-001 8.27962719e-003 
184 321.01 5.56348480e-001 8.34522719e-003 
185 321.82 5.71623182e-001 8.57434774e-003 
186 322.63 5.96592821e-001 8.94889232e-003 
187 323.43 5.77066346e-001 8.65599519e-003 
188 324.24 5.89969896e-001 8.84954844e-003 
189 325.05 6.09157840e-001 9.13736760e-003 
190 325.86 6.17892757e-001 9.26839136e-003 
191 326.67 6.38661873e-001 9.57992810e-003 
192 327.48 6.59047298e-001 9.88570948e-003 
193 328.28 6.63700959e-001 9.95551439e-003 
194 329.09 7.18993686e-001 1.07849053e-002 
195 329.90 7.38763937e-001 1.10814591e-002 
196 330.71 7.62271724e-001 1.14340759e-002 
197 331.51 8.27684991e-001 1.24152749e-002 
198 332.32 9.12708687e-001 1.36906303e-002 
199 333.13 1.09859087e+000 1.64788630e-002 
200 333.94 1.44804296e+000 2.17206445e-002 
201 334.75 2.05353549e+000 3.08030324e-002 
202 335.56 2.97614847e+000 4.46422271e-002 
203 336.36 4.29436251e+000 6.44154376e-002 
204 337.17 6.58786926e+000 9.88180389e-002 
205 337.98 9.63419887e+000 1.44512983e-001 
206 338.79 1.35160621e+001 2.02740931e-001 
207 339.59 1.78398418e+001 2.67597626e-001 
208 340.40 2.14387206e+001 3.21580809e-001 
209 341.21 2.47238305e+001 3.70857457e-001 
210 342.02 2.85126472e+001 4.27689708e-001 
211 342.83 3.15209279e+001 4.72813919e-001 
212 343.64 3.21183208e+001 4.81774812e-001 
213 344.44 3.36667451e+001 5.05001177e-001 
214 345.25 3.76073176e+001 5.64109764e-001 
215 346.06 4.10682669e+001 6.16024004e-001 
216 346.87 4.33046690e+001 6.49570036e-001 
217 347.67 4.48065600e+001 6.72098400e-001 
218 348.48 4.64035497e+001 6.96053245e-001 
219 349.29 4.94855902e+001 7.42283853e-001 
220 350.10 5.43604974e+001 8.15407462e-001 
221 350.91 5.73548115e+001 8.60322173e-001 
222 351.71 5.73285650e+001 8.59928475e-001 
223 352.52 5.87633396e+001 8.81450094e-001 
224 353.33 6.44516382e+001 9.66774573e-001 
225 354.14 7.09750115e+001 1.06462517e+000 
226 354.94 7.34977783e+001 1.10246667e+000 
227 355.75 7.18722254e+001 1.07808338e+000 
228 356.56 6.74203505e+001 1.01130526e+000 
229 357.37 6.35677906e+001 9.53516860e-001 
230 358.18 6.33887392e+001 9.50831088e-001 
231 358.98 7.19365078e+001 1.07904762e+000 
232 359.79 8.23340046e+001 1.23501007e+000 
233 360.60 8.30465834e+001 1.24569875e+000 
234 361.41 8.22134999e+001 1.23320250e+000 
235 362.21 8.70345301e+001 1.30551795e+000 
236 363.02 9.20466804e+001 1.38070021e+000 
237 363.83 9.50988873e+001 1.42648331e+000 
238 364.64 1.00328187e+002 1.50492280e+000 
239 365.44 1.09651582e+002 1.64477373e+000 
240 366.25 1.16977616e+002 1.75466424e+000 
241 367.06 1.17687829e+002 1.76531743e+000 
242 367.87 1.16058743e+002 1.74088115e+000 
243 368.67 1.18369828e+002 1.77554742e+000 
244 369.48 1.23416753e+002 1.85125130e+000 
245 370.29 1.24552805e+002 1.86829207e+000 
246 371.10 1.23316123e+002 1.84974185e+000 
247 371.90 1.20065465e+002 1.80098197e+000 
248 372.71 1.13469167e+002 1.70203750e+000 
249 373.52 1.07696647e+002 1.61544971e+000 
250 374.33 1.08092138e+002 1.62138207e+000 
251 375.13 1.16303819e+002 1.74455729e+000 
252 375.94 1.26873771e+002 1.90310657e+000 
253 376.75 1.38619096e+002 2.07928644e+000 
254 377.55 1.51387762e+002 2.27081643e+000 
255 378.36 1.53934578e+002 2.30901868e+000 
256 379.17 1.46590941e+002 2.19886411e+000 
257 379.98 1.44277176e+002 2.16415764e+000 
258 380.78 1.43265506e+002 2.14898259e+000 
259 381.59 1.29793352e+002 1.94690029e+000 
260 382.40 1.11205364e+002 1.66808046e+000 
261 383.21 1.04175726e+002 1.56263589e+000 
262 384.01 1.14304336e+002 1.71456504e+000 
263 384.82 1.28886239e+002 1.93329359e+000 
264 385.63 1.35040821e+002 2.02561231e+000 
265 386.43 1.36744872e+002 2.05117309e+000 
266 387.24 1.38167610e+002 2.07251414e+000 
267 388.05 1.41537439e+002 2.12306159e+000 
268 388.85 1.51335957e+002 2.27003936e+000 
269 389.66 1.65949283e+002 2.48923924e+000 
270 390.47 1.77474249e+002 2.66211374e+000 
271 391.27 1.77542308e+002 2.66313462e+000 
272 392.08 1.57629479e+002 2.36444219e+000 
273 392.89 1.30131602e+002 1.95197402e+000 
274 393.69 1.27653440e+002 1.91480159e+000 
275 394.50 1.52932763e+002 2.29399144e+000 
276 395.31 1.68469341e+002 2.52704012e+000 
277 396.11 1.57495283e+002 2.36242925e+000 
278 396.92 1.53766441e+002 2.30649662e+000 
279 397.73 1.84083367e+002 2.76125051e+000 
280 398.53 2.25847868e+002 3.38771803e+000 
281 399.34 2.52280885e+002 3.78421327e+000 
282 400.15 2.65811817e+002 3.98717725e+000 
283 400.95 2.75551773e+002 4.13327659e+000 
284 401.76 2.82710040e+002 4.24065061e+000 
285 402.57 2.84763854e+002 4.27145781e+000 
286 403.37 2.83409013e+002 4.25113519e+000 
287 404.18 2.82139727e+002 4.23209591e+000 
288 404.98 2.80775668e+002 4.21163502e+000 
289 405.79 2.79492004e+002 4.19238006e+000 
290 406.60 2.81037052e+002 4.21555578e+000 
291 407.40 2.88713198e+002 4.33069797e+000 
292 408.21 2.99158738e+002 4.48738108e+000 
293 409.02 3.02375964e+002 4.53563946e+000 
294 409.82 2.99836022e+002 4.49754033e+000 
295 410.63 3.04995186e+002 4.57492779e+000 
296 411.44 3.18248734e+002 4.77373100e+000 
297 412.24 3.27279924e+002 4.90919885e+000 
298 413.05 3.29688996e+002 4.94533494e+000 
299 413.85 3.31133706e+002 4.96700559e+000 
300 414.66 3.33693409e+002 5.00540114e+000 
301 415.46 3.37015106e+002 5.05522659e+000 
302 416.27 3.38868069e+002 5.08302103e+000 
303 417.08 3.36707770e+002 5.05061655e+000 
304 417.88 3.33544928e+002 5.00317393e+000 
305 418.69 3.33338033e+002 5.00007050e+000 
306 419.49 3.36518039e+002 5.04777058e+000 
307 420.30 3.42695012e+002 5.14042518e+000 
308 421.11 3.47038990e+002 5.20558485e+000 
309 421.91 3.45029998e+002 5.17544998e+000 
310 422.72 3.40799452e+002 5.11199177e+000 
311 423.52 3.40945838e+002 5.11418757e+000 
312 424.33 3.43912928e+002 5.15869392e+000 
313 425.13 3.44690146e+002 5.17035219e+000 
314 425.94 3.42524645e+002 5.13786968e+000 
315 426.74 3.39256338e+002 5.08884507e+000 
316 427.55 3.35099599e+002 5.02649398e+000 
317 428.35 3.26225265e+002 4.89337897e+000 
318 429.16 3.09171896e+002 4.63757844e+000 
319 429.96 2.93749581e+002 4.40624371e+000 
320 430.77 2.99148275e+002 4.48722413e+000 
321 431.58 3.24737134e+002 4.87105702e+000 
322 432.38 3.49477938e+002 5.24216907e+000 
323 433.19 3.58647975e+002 5.37971962e+000 
324 433.99 3.61910690e+002 5.42866036e+000 
325 434.80 3.71346169e+002 5.57019253e+000 
326 435.60 3.85309782e+002 5.77964672e+000 
327 436.41 3.92327865e+002 5.88491798e+000 
328 437.21 3.87265996e+002 5.80898995e+000 
329 438.02 3.78652662e+002 5.67978993e+000 
330 438.82 3.77191520e+002 5.65787280e+000 
331 439.63 3.84554312e+002 5.76831469e+000 
332 440.43 3.97298025e+002 5.95947037e+000 
333 441.24 4.10305903e+002 6.15458854e+000 
334 442.04 4.21302360e+002 6.31953540e+000 
335 442.84 4.28331074e+002 6.42496611e+000 
336 443.65 4.31201405e+002 6.46802107e+000 
337 444.45 4.30373156e+002 6.45559733e+000 
338 445.26 4.28205432e+002 6.42308148e+000 
339 446.06 4.30542644e+002 6.45813965e+000 
340 446.87 4.38754491e+002 6.58131737e+000 
341 447.67 4.49398039e+002 6.74097058e+000 
342 448.48 4.57995801e+002 6.86993702e+000 
343 449.28 4.66090095e+002 6.99135142e+000 
344 450.09 4.74389549e+002 7.11584324e+000 
345 450.89 4.77907207e+002 7.16860811e+000 
346 451.69 4.72254906e+002 7.08382359e+000 
347 452.50 4.62960910e+002 6.94441365e+000 
348 453.30 4.58300168e+002 6.87450251e+000 
349 454.11 4.60231873e+002 6.90347810e+000 
350 454.91 4.67021432e+002 7.00532148e+000 
351 455.72 4.74340587e+002 7.11510881e+000 
352 456.52 4.80065846e+002 7.20098769e+000 
353 457.32 4.82245455e+002 7.23368183e+000 
354 458.13 4.81068557e+002 7.21602835e+000 
355 458.93 4.80462620e+002 7.20693929e+000 
356 459.74 4.83626314e+002 7.25439471e+000 
357 460.54 4.89750314e+002 7.34625471e+000 
358 461.34 4.96200797e+002 7.44301195e+000 
359 462.15 4.99978873e+002 7.49968310e+000 
360 462.95 4.99283216e+002 7.48924824e+000 
361 463.76 4.95889867e+002 7.43834800e+000 
362 464.56 4.92782336e+002 7.39173504e+000 
363 465.36 4.90405404e+002 7.35608107e+000 
364 466.17 4.89532526e+002 7.34298790e+000 
365 466.97 4.90725916e+002 7.36088874e+000 
366 467.77 4.93342873e+002 7.40014310e+000 
367 468.58 4.95740513e+002 7.43610770e+000 
368 469.38 4.96321720e+002 7.44482579e+000 
369 470.18 4.97576022e+002 7.46364033e+000 
370 470.99 5.02626280e+002 7.53939420e+000 
371 471.79 5.09453709e+002 7.64180563e+000 
372 472.59 5.15722696e+002 7.73584044e+000 
373 473.40 5.20306510e+002 7.80459766e+000 
374 474.20 5.22967222e+002 7.84450833e+000 
375 475.00 5.24857938e+002 7.87286908e+000 
376 475.81 5.26931416e+002 7.90397124e+000 
377 476.61 5.30367243e+002 7.95550864e+000 
378 477.41 5.35421185e+002 8.03131778e+000 
379 478.21 5.40415387e+002 8.10623081e+000 
380 479.02 5.43707866e+002 8.15561798e+000 
381 479.82 5.45588611e+002 8.18382916e+000 
382 480.62 5.47719894e+002 8.21579841e+000 
383 481.43 5.48412850e+002 8.22619276e+000 
384 482.23 5.46917457e+002 8.20376186e+000 
385 483.03 5.42216361e+002 8.13324541e+000 
386 483.84 5.31978512e+002 7.97967768e+000 
387 484.64 5.13640070e+002 7.70460105e+000 
388 485.44 4.93978328e+002 7.40967492e+000 
389 486.24 4.84131985e+002 7.26197978e+000 
390 487.05 4.87438173e+002 7.31157259e+000 
391 487.85 5.01264514e+002 7.51896770e+000 
392 488.65 5.17610189e+002 7.76415284e+000 
393 489.45 5.28136389e+002 7.92204584e+000 
394 490.26 5.31032213e+002 7.96548319e+000 
395 491.06 5.29247899e+002 7.93871848e+000 
396 491.86 5.26252454e+002 7.89378681e+000 
397 492.66 5.26383654e+002 7.89575481e+000 
398 493.46 5.31484876e+002 7.97227315e+000 
399 494.27 5.37053307e+002 8.05579960e+000 
400 495.07 5.40037760e+002 8.10056639e+000 
401 495.87 5.41008413e+002 8.11512620e+000 
402 496.67 5.38244600e+002 8.07366900e+000 
403 497.48 5.34017335e+002 8.01026002e+000 
404 498.28 5.29874167e+002 7.94811251e+000 
405 499.08 5.24455041e+002 7.86682562e+000 
406 499.88 5.18583181e+002 7.77874772e+000 
407 500.68 5.14200360e+002 7.71300539e+000 
408 501.48 5.12541223e+002 7.68811834e+000 
409 502.29 5.14381486e+002 7.71572229e+000 
410 503.09 5.18141063e+002 7.77211594e+000 
411 503.89 5.23477077e+002 7.85215616e+000 
412 504.69 5.29160584e+002 7.93740876e+000 
413 505.49 5.32949338e+002 7.99424007e+000 
414 506.29 5.33366679e+002 8.00050018e+000 
415 507.09 5.30918735e+002 7.96378102e+000 
416 507.90 5.28076324e+002 7.92114485e+000 
417 508.70 5.26716247e+002 7.90074371e+000 
418 509.50 5.27138994e+002 7.90708491e+000 
419 510.30 5.28156930e+002 7.92235396e+000 
420 511.10 5.26947901e+002 7.90421852e+000 
421 511.90 5.23235901e+002 7.84853852e+000 
422 512.70 5.17786887e+002 7.76680330e+000 
423 513.51 5.12120349e+002 7.68180523e+000 
424 514.31 5.07018769e+002 7.60528154e+000 
425 515.11 4.98671547e+002 7.48007320e+000 
426 515.91 4.85875869e+002 7.28813804e+000 
427 516.71 4.73963232e+002 7.10944847e+000 
428 517.51 4.67613409e+002 7.01420113e+000 
429 518.31 4.71288494e+002 7.06932742e+000 
430 519.11 4.82440815e+002 7.23661223e+000 
431 519.91 4.93884341e+002 7.40826511e+000 
432 520.71 5.02127324e+002 7.53190986e+000 
433 521.51 5.05521362e+002 7.58282043e+000 
434 522.32 5.07842687e+002 7.61764030e+000 
435 523.12 5.11527901e+002 7.67291851e+000 
436 523.92 5.14610826e+002 7.71916238e+000 
437 524.72 5.13573686e+002 7.70360529e+000 
438 525.52 5.06521441e+002 7.59782161e+000 
439 526.32 4.99089671e+002 7.48634506e+000 
440 527.12 4.98537736e+002 7.47806604e+000 
441 527.92 5.05283294e+002 7.57924941e+000 
442 528.72 5.16215875e+002 7.74323812e+000 
443 529.52 5.25938748e+002 7.88908122e+000 
444 530.32 5.29738768e+002 7.94608152e+000 
445 531.12 5.27351017e+002 7.91026525e+000 
446 531.92 5.22635499e+002 7.83953249e+000 
447 532.72 5.18626537e+002 7.77939806e+000 
448 533.52 5.18386947e+002 7.77580420e+000 
449 534.32 5.22139034e+002 7.83208551e+000 
450 535.12 5.25599077e+002 7.88398615e+000 
