% Radiance calibration [Resp in cts/ms / W/(m^2.sr.um)] for 4STAR NIR spectrometer (512 channels) derived from 20140716_004_NIR_park.dat on 2015-03-16 13:59:53. 
% Calibration used only data with Lamps_9 and 12 ms (vis), 150 ms (nir). 
% Also requires calibrated radiance from 20140606091700HISS.txt. 
Pix  Wavelength     resp       rate        rad 
511  949.79  7.39445307e-02 8.08225435e+01 1.18941709e+03 
510  949.79  8.28643145e-02 9.77355674e+01 1.18941303e+03 
509  951.68  8.81098859e-02 1.04682819e+02 1.18756793e+03 
508  953.57  9.06630783e-02 1.07198088e+02 1.18576079e+03 
507  955.46  9.58113582e-02 1.13530093e+02 1.18395611e+03 
506  957.34  9.79770257e-02 1.15124477e+02 1.18215388e+03 
505  959.22  1.03349097e-01 1.22091880e+02 1.18035409e+03 
504  961.10  1.05891090e-01 1.24490778e+02 1.17858645e+03 
503  962.98  1.10701575e-01 1.30376681e+02 1.17684216e+03 
502  964.85  1.11858691e-01 1.30876821e+02 1.17510021e+03 
501  966.72  1.17878750e-01 1.38373898e+02 1.17336060e+03 
500  968.59  1.19615672e-01 1.39720082e+02 1.17162332e+03 
499  970.45  1.23985892e-01 1.45004302e+02 1.16974691e+03 
498  972.32  1.25505810e-01 1.46027269e+02 1.16743299e+03 
497  974.18  1.29606729e-01 1.51098178e+02 1.16512216e+03 
496  976.04  1.30166347e-01 1.51071555e+02 1.16281439e+03 
495  977.89  1.33459221e-01 1.54689163e+02 1.16050968e+03 
494  979.74  1.33632647e-01 1.54242017e+02 1.15820802e+03 
493  981.59  1.36707789e-01 1.58252414e+02 1.15675618e+03 
492  983.44  1.36291146e-01 1.57056673e+02 1.15544203e+03 
491  985.29  1.38935578e-01 1.60446017e+02 1.15412961e+03 
490  987.13  1.38180614e-01 1.59035396e+02 1.15281892e+03 
489  988.97  1.40332954e-01 1.61787969e+02 1.15150993e+03 
488  990.81  1.39125282e-01 1.59435587e+02 1.14976580e+03 
487  992.65  1.40860563e-01 1.61734059e+02 1.14747232e+03 
486  994.48  1.40089014e-01 1.60231599e+02 1.14518183e+03 
485  996.31  1.41553775e-01 1.61997731e+02 1.14289432e+03 
484  998.14  1.39829330e-01 1.59016446e+02 1.14060976e+03 
483  999.97  1.41685403e-01 1.61230751e+02 1.13832815e+03 
482  1001.79  1.40389948e-01 1.59341758e+02 1.13693564e+03 
481  1003.62  1.41153973e-01 1.60463139e+02 1.13556000e+03 
480  1005.44  1.39453185e-01 1.57959905e+02 1.13418611e+03 
479  1007.25  1.41033940e-01 1.59916794e+02 1.13281399e+03 
478  1009.07  1.38253175e-01 1.55853097e+02 1.13144362e+03 
477  1010.88  1.39799094e-01 1.58103686e+02 1.12982661e+03 
476  1012.69  1.37865206e-01 1.55270804e+02 1.12794918e+03 
475  1014.50  1.38252508e-01 1.55591841e+02 1.12607413e+03 
474  1016.31  1.36694145e-01 1.53446399e+02 1.12420146e+03 
473  1018.11  1.37902277e-01 1.54901269e+02 1.12233115e+03 
472  1019.91  1.35839907e-01 1.51675685e+02 1.12046320e+03 
471  1021.71  1.37219857e-01 1.53555588e+02 1.11864032e+03 
470  1023.51  1.35438094e-01 1.50923076e+02 1.11682198e+03 
469  1025.30  1.36802791e-01 1.52652297e+02 1.11500591e+03 
468  1027.09  1.37055480e-01 1.52346272e+02 1.11319212e+03 
467  1028.88  1.38983179e-01 1.54562369e+02 1.11138058e+03 
466  1030.67  1.37849764e-01 1.52172298e+02 1.10960482e+03 
465  1032.46  1.40212996e-01 1.55467105e+02 1.10788706e+03 
464  1034.24  1.39656203e-01 1.54167290e+02 1.10617143e+03 
463  1036.02  1.41564330e-01 1.56511623e+02 1.10445791e+03 
462  1037.80  1.41387602e-01 1.55717830e+02 1.10274651e+03 
461  1039.58  1.43770857e-01 1.58450619e+02 1.10103721e+03 
460  1041.35  1.42974337e-01 1.56589962e+02 1.09910027e+03 
459  1043.12  1.45558175e-01 1.59817273e+02 1.09709384e+03 
458  1044.89  1.45949113e-01 1.59438686e+02 1.09508985e+03 
457  1046.66  1.48578123e-01 1.62463370e+02 1.09308830e+03 
456  1048.43  1.49077239e-01 1.62519078e+02 1.09108919e+03 
455  1050.19  1.51932351e-01 1.65617546e+02 1.08908366e+03 
454  1051.95  1.51489352e-01 1.64476166e+02 1.08700835e+03 
453  1053.71  1.54681946e-01 1.67937510e+02 1.08493554e+03 
452  1055.47  1.53778141e-01 1.65799049e+02 1.08286523e+03 
451  1057.23  1.56624803e-01 1.69382838e+02 1.08079740e+03 
450  1058.98  1.56134210e-01 1.68208108e+02 1.07873206e+03 
449  1060.73  1.57761929e-01 1.69926580e+02 1.07640757e+03 
448  1062.48  1.56048063e-01 1.67144711e+02 1.07372098e+03 
447  1064.23  1.57849477e-01 1.69106272e+02 1.07103759e+03 
446  1065.97  1.56553984e-01 1.67108251e+02 1.06835739e+03 
445  1067.71  1.56988949e-01 1.67442546e+02 1.06568036e+03 
444  1069.46  1.55127912e-01 1.64791338e+02 1.06300649e+03 
443  1071.19  1.55151518e-01 1.64537974e+02 1.06069283e+03 
442  1072.93  1.53487585e-01 1.62100581e+02 1.05854453e+03 
441  1074.67  1.54294657e-01 1.63062084e+02 1.05639876e+03 
440  1076.40  1.52954494e-01 1.61167337e+02 1.05425549e+03 
439  1078.13  1.53179643e-01 1.61164668e+02 1.05211473e+03 
438  1079.86  1.52092122e-01 1.59328480e+02 1.04997647e+03 
437  1081.58  1.53246581e-01 1.60680644e+02 1.04739561e+03 
436  1083.31  1.53204178e-01 1.59728691e+02 1.04477770e+03 
435  1085.03  1.55688369e-01 1.62423215e+02 1.04216282e+03 
434  1086.75  1.55206724e-01 1.60864974e+02 1.03955096e+03 
433  1088.47  1.57798940e-01 1.63799561e+02 1.03694210e+03 
432  1090.19  1.58559910e-01 1.63924528e+02 1.03431401e+03 
431  1091.90  1.61648218e-01 1.66777576e+02 1.03150709e+03 
430  1093.61  1.62280703e-01 1.66796749e+02 1.02870339e+03 
429  1095.33  1.65887191e-01 1.70285773e+02 1.02590288e+03 
428  1097.03  1.66662998e-01 1.69887440e+02 1.02310556e+03 
427  1098.74  1.70285947e-01 1.73612979e+02 1.02031142e+03 
426  1100.45  1.71552038e-01 1.74190902e+02 1.01736535e+03 
425  1102.15  1.76282791e-01 1.78675232e+02 1.01398488e+03 
424  1103.85  1.77643459e-01 1.79234491e+02 1.01060822e+03 
423  1105.55  1.80741115e-01 1.81846560e+02 1.00723535e+03 
422  1107.25  1.82388545e-01 1.82582853e+02 1.00386627e+03 
421  1108.94  1.85896688e-01 1.85919627e+02 1.00050096e+03 
420  1110.64  1.85975353e-01 1.84763419e+02 9.96143011e+02 
419  1112.33  1.89623454e-01 1.87741245e+02 9.90131099e+02 
418  1114.02  1.89148104e-01 1.85731632e+02 9.84125868e+02 
417  1115.70  1.91567300e-01 1.87335779e+02 9.78127294e+02 
416  1117.39  1.90884304e-01 1.85268025e+02 9.72135354e+02 
415  1119.07  1.92274252e-01 1.85742612e+02 9.66150025e+02 
414  1120.76  1.92569008e-01 1.84706618e+02 9.61112409e+02 
413  1122.44  1.95178656e-01 1.86780749e+02 9.57230662e+02 
412  1124.12  1.95910660e-01 1.86243077e+02 9.53353166e+02 
411  1125.79  1.99905145e-01 1.89739737e+02 9.49479907e+02 
410  1127.47  2.01575434e-01 1.90162785e+02 9.45610870e+02 
409  1129.14  2.04882427e-01 1.92886322e+02 9.41746040e+02 
408  1130.81  2.02682171e-01 1.89883360e+02 9.38302521e+02 
407  1132.48  2.02243605e-01 1.89123713e+02 9.35304166e+02 
406  1134.15  2.00695883e-01 1.86841393e+02 9.32309047e+02 
405  1135.81  2.02828780e-01 1.88442359e+02 9.29317155e+02 
404  1137.48  2.06900926e-01 1.91303415e+02 9.26328477e+02 
403  1139.14  2.09246547e-01 1.93143090e+02 9.23343002e+02 
402  1140.80  2.06616034e-01 1.89550742e+02 9.19940796e+02 
401  1142.46  2.06445739e-01 1.88931669e+02 9.16092513e+02 
400  1144.12  2.03449909e-01 1.84962721e+02 9.12248325e+02 
399  1145.77  2.04470654e-01 1.85723074e+02 9.08408218e+02 
398  1147.43  2.03873623e-01 1.84199696e+02 9.04572177e+02 
397  1149.08  2.04653906e-01 1.84339502e+02 9.00740188e+02 
396  1150.73  2.03544250e-01 1.82300635e+02 8.97211961e+02 
395  1152.38  2.04834790e-01 1.83151974e+02 8.94067112e+02 
394  1154.02  2.02534001e-01 1.79558560e+02 8.90925560e+02 
393  1155.67  2.06300344e-01 1.83140644e+02 8.87787296e+02 
392  1157.31  2.05558851e-01 1.81615684e+02 8.84652306e+02 
391  1158.95  2.06317609e-01 1.81882472e+02 8.81520581e+02 
390  1160.59  2.05504155e-01 1.80283933e+02 8.78532800e+02 
389  1162.23  2.06238481e-01 1.80662496e+02 8.75797404e+02 
388  1163.87  2.03864494e-01 1.77566730e+02 8.73064835e+02 
387  1165.50  2.04680520e-01 1.78182839e+02 8.70335085e+02 
386  1167.13  2.03027444e-01 1.75854095e+02 8.67608142e+02 
385  1168.76  2.02537326e-01 1.75314053e+02 8.64883998e+02 
384  1170.39  2.00978119e-01 1.73060181e+02 8.61869389e+02 
383  1172.02  2.00754075e-01 1.72258792e+02 8.57938035e+02 
382  1173.65  1.99449466e-01 1.70233335e+02 8.54010686e+02 
381  1175.27  1.99198611e-01 1.69206632e+02 8.50087328e+02 
380  1176.90  1.97923777e-01 1.67263706e+02 8.46167949e+02 
379  1178.52  1.97359193e-01 1.66314258e+02 8.42252533e+02 
378  1180.14  1.95366040e-01 1.63651364e+02 8.38337527e+02 
377  1181.75  1.94552285e-01 1.62491551e+02 8.34387931e+02 
376  1183.37  1.91645980e-01 1.59120366e+02 8.30442301e+02 
375  1184.99  1.90683001e-01 1.57528127e+02 8.26500624e+02 
374  1186.60  1.88719589e-01 1.55010011e+02 8.22562886e+02 
373  1188.21  1.86582916e-01 1.52657556e+02 8.18629074e+02 
372  1189.82  1.84605059e-01 1.49866341e+02 8.14699175e+02 
371  1191.43  1.86357704e-01 1.51238137e+02 8.10950301e+02 
370  1193.04  1.85034979e-01 1.49294000e+02 8.07227426e+02 
369  1194.64  1.85478223e-01 1.48882824e+02 8.03508227e+02 
368  1196.24  1.85010172e-01 1.47742690e+02 7.99792692e+02 
367  1197.85  1.85961794e-01 1.48093387e+02 7.96080809e+02 
366  1199.45  1.86250208e-01 1.47171910e+02 7.92372564e+02 
365  1201.05  1.86943688e-01 1.47748037e+02 7.89823048e+02 
364  1202.64  1.85498475e-01 1.45851007e+02 7.87887090e+02 
363  1204.24  1.86677576e-01 1.46772398e+02 7.85953016e+02 
362  1205.83  1.85886656e-01 1.45697287e+02 7.84020821e+02 
361  1207.43  1.86590482e-01 1.46036087e+02 7.82090498e+02 
360  1209.02  1.87292635e-01 1.46035646e+02 7.80162040e+02 
359  1210.61  1.88135394e-01 1.46607933e+02 7.78805755e+02 
358  1212.19  1.87766186e-01 1.45779826e+02 7.78375387e+02 
357  1213.78  1.89531300e-01 1.47562215e+02 7.77945432e+02 
356  1215.37  1.89708638e-01 1.47496464e+02 7.77515889e+02 
355  1216.95  1.90600987e-01 1.48212453e+02 7.77086756e+02 
354  1218.53  1.91424825e-01 1.48633028e+02 7.76658033e+02 
353  1220.11  1.92812347e-01 1.49756721e+02 7.76204573e+02 
352  1221.69  1.92418050e-01 1.48630946e+02 7.75421388e+02 
351  1223.27  1.94244215e-01 1.50574247e+02 7.74638943e+02 
350  1224.84  1.95492874e-01 1.51222225e+02 7.73857237e+02 
349  1226.42  1.96485052e-01 1.52021447e+02 7.73076267e+02 
348  1227.99  1.97246337e-01 1.52233134e+02 7.72296032e+02 
347  1229.56  1.98368500e-01 1.53161983e+02 7.71516527e+02 
346  1231.13  1.98222288e-01 1.52649626e+02 7.70194775e+02 
345  1232.70  1.99251271e-01 1.53241810e+02 7.68665346e+02 
344  1234.27  1.99079718e-01 1.52244427e+02 7.67137340e+02 
343  1235.84  1.99411585e-01 1.52801520e+02 7.65610753e+02 
342  1237.40  1.99440695e-01 1.52018381e+02 7.64085582e+02 
341  1238.96  2.00043396e-01 1.52648907e+02 7.62561821e+02 
340  1240.52  1.98775459e-01 1.51226394e+02 7.61161470e+02 
339  1242.08  2.00453993e-01 1.52347445e+02 7.60003984e+02 
338  1243.64  2.01031605e-01 1.52513709e+02 7.58847562e+02 
337  1245.20  2.01133106e-01 1.52346196e+02 7.57692199e+02 
336  1246.75  2.01471606e-01 1.52193245e+02 7.56537893e+02 
335  1248.31  2.02588825e-01 1.53161885e+02 7.55384639e+02 
334  1249.86  2.02384369e-01 1.52440748e+02 7.54232435e+02 
333  1251.41  2.03609766e-01 1.53329105e+02 7.52573876e+02 
332  1252.96  2.03794283e-01 1.52965190e+02 7.50867303e+02 
331  1254.51  2.03982845e-01 1.52907120e+02 7.49162273e+02 
330  1256.06  2.04330249e-01 1.52177455e+02 7.47458781e+02 
329  1257.61  2.05709763e-01 1.53512396e+02 7.45756822e+02 
328  1259.15  2.06689387e-01 1.53752682e+02 7.44056391e+02 
327  1260.69  2.07358689e-01 1.54062556e+02 7.42417045e+02 
326  1262.23  2.07630370e-01 1.53619836e+02 7.40852241e+02 
325  1263.77  2.07896045e-01 1.53719591e+02 7.39288832e+02 
324  1265.31  2.09105040e-01 1.54266601e+02 7.37726815e+02 
323  1266.85  2.09091356e-01 1.54143898e+02 7.36166185e+02 
322  1268.39  2.09475472e-01 1.53887004e+02 7.34606939e+02 
321  1269.92  2.09660762e-01 1.53810507e+02 7.33049071e+02 
320  1271.46  2.09413175e-01 1.52858519e+02 7.31309173e+02 
319  1272.99  2.09838297e-01 1.53182991e+02 7.29561000e+02 
318  1274.52  2.10066508e-01 1.52863033e+02 7.27814363e+02 
317  1276.05  2.11315565e-01 1.53534804e+02 7.26069257e+02 
316  1277.58  2.10781036e-01 1.52398275e+02 7.24325677e+02 
315  1279.10  2.11401264e-01 1.52831808e+02 7.22583620e+02 
314  1280.63  2.11552655e-01 1.52065170e+02 7.20837425e+02 
313  1282.15  2.11035053e-01 1.51767022e+02 7.19084681e+02 
312  1283.68  2.11769488e-01 1.51875531e+02 7.17333457e+02 
311  1285.20  2.11803351e-01 1.51665395e+02 7.15583749e+02 
310  1286.72  2.10649429e-01 1.50068384e+02 7.13835552e+02 
309  1288.24  2.11451643e-01 1.50647400e+02 7.12088863e+02 
308  1289.75  2.09944153e-01 1.48986900e+02 7.10343675e+02 
307  1291.27  2.10212447e-01 1.48950697e+02 7.08189913e+02 
306  1292.78  2.10903170e-01 1.48833768e+02 7.05958388e+02 
305  1294.30  2.10811298e-01 1.48459532e+02 7.03728771e+02 
304  1295.81  2.09836542e-01 1.46902793e+02 7.01501056e+02 
303  1297.32  2.10109649e-01 1.46916586e+02 6.99275238e+02 
302  1298.83  2.10737192e-01 1.46827444e+02 6.97051311e+02 
301  1300.34  2.09669498e-01 1.45748270e+02 6.94736807e+02 
300  1301.85  2.09627411e-01 1.45061702e+02 6.92106679e+02 
299  1303.35  2.08513016e-01 1.43660264e+02 6.89478772e+02 
298  1304.86  2.07756592e-01 1.42507658e+02 6.86853081e+02 
297  1306.36  2.07761705e-01 1.42198945e+02 6.84229599e+02 
296  1307.86  2.07651398e-01 1.41130438e+02 6.81608320e+02 
295  1309.36  2.07103643e-01 1.40671060e+02 6.78989238e+02 
294  1310.86  2.06965707e-01 1.39911692e+02 6.76086368e+02 
293  1312.36  2.05727161e-01 1.38177007e+02 6.72975692e+02 
292  1313.86  2.06044157e-01 1.38012173e+02 6.69867607e+02 
291  1315.36  2.05424131e-01 1.36923622e+02 6.66762108e+02 
290  1316.85  2.04359400e-01 1.35329878e+02 6.63659187e+02 
289  1318.34  2.03426642e-01 1.34448002e+02 6.60558837e+02 
288  1319.84  2.02957246e-01 1.33410652e+02 6.57461051e+02 
287  1321.33  2.02392672e-01 1.32476326e+02 6.54019560e+02 
286  1322.82  2.00497079e-01 1.29875129e+02 6.50538063e+02 
285  1324.30  2.00974881e-01 1.29964737e+02 6.47059429e+02 
284  1325.79  2.00736568e-01 1.29166843e+02 6.43583651e+02 
283  1327.28  1.99486707e-01 1.27782670e+02 6.40110721e+02 
282  1328.76  1.98845133e-01 1.26601672e+02 6.36640633e+02 
281  1330.25  1.97819665e-01 1.25254406e+02 6.32956004e+02 
280  1331.73  1.96078700e-01 1.22931145e+02 6.28185559e+02 
279  1333.21  1.96401119e-01 1.22330696e+02 6.23418996e+02 
278  1334.69  1.95918310e-01 1.21036315e+02 6.18656305e+02 
277  1336.17  1.95550588e-01 1.20141256e+02 6.13897476e+02 
276  1337.65  1.94995889e-01 1.18816331e+02 6.09142500e+02 
275  1339.12  1.92880297e-01 1.16680532e+02 6.04391367e+02 
274  1340.60  1.92765449e-01 1.15056504e+02 5.98323204e+02 
273  1342.07  1.92884805e-01 1.13683130e+02 5.90326511e+02 
272  1343.55  1.91927638e-01 1.11580887e+02 5.82336247e+02 
271  1345.02  1.88437662e-01 1.08309109e+02 5.74352399e+02 
270  1346.49  1.85708802e-01 1.05071792e+02 5.66374949e+02 
269  1347.96  1.82863660e-01 1.02184488e+02 5.58403883e+02 
268  1349.43  1.78858115e-01 9.84455452e+01 5.50439185e+02 
267  1350.89  1.74828500e-01 9.47494247e+01 5.41642350e+02 
266  1352.36  1.68020999e-01 8.92430423e+01 5.32312484e+02 
265  1353.82  1.64250025e-01 8.59607765e+01 5.22990036e+02 
264  1355.29  1.60627717e-01 8.22672135e+01 5.13674990e+02 
263  1356.75  1.59337402e-01 8.04309366e+01 5.04367328e+02 
262  1358.21  1.54090710e-01 7.60483744e+01 4.95067033e+02 
261  1359.67  1.50289896e-01 7.31401222e+01 4.85774089e+02 
260  1361.13  1.47683830e-01 7.08896598e+01 4.80791750e+02 
259  1362.59  1.46894292e-01 7.01866395e+01 4.77073144e+02 
258  1364.04  1.51962584e-01 7.19649983e+01 4.73357464e+02 
257  1365.50  1.52044481e-01 7.14970419e+01 4.69644703e+02 
256  1366.95  1.51634711e-01 7.02362285e+01 4.65934856e+02 
255  1368.41  1.50237358e-01 6.95352983e+01 4.62227915e+02 
254  1369.86  1.49611581e-01 6.85100226e+01 4.58523875e+02 
253  1371.31  1.49963919e-01 6.83536785e+01 4.55192955e+02 
252  1372.76  1.46308215e-01 6.58304577e+01 4.51904970e+02 
251  1374.21  1.44278849e-01 6.47537880e+01 4.48619547e+02 
250  1375.65  1.37081489e-01 6.10774234e+01 4.45336682e+02 
249  1377.10  1.26020214e-01 5.57276960e+01 4.42056367e+02 
248  1378.55  1.14266354e-01 4.98534832e+01 4.38778599e+02 
247  1379.99  1.03858029e-01 4.52811128e+01 4.35503372e+02 
246  1381.43  9.85033350e-02 4.19553347e+01 4.29925498e+02 
245  1382.87  1.00082310e-01 4.24730198e+01 4.24335369e+02 
244  1384.32  1.04261308e-01 4.36660135e+01 4.18749558e+02 
243  1385.75  1.09546510e-01 4.53077930e+01 4.13168056e+02 
242  1387.19  1.16149945e-01 4.73670899e+01 4.07590855e+02 
241  1388.63  1.18485257e-01 4.76838617e+01 4.02017946e+02 
240  1390.07  1.20389922e-01 4.77536411e+01 3.96416779e+02 
239  1391.50  1.21891719e-01 4.76159877e+01 3.90157784e+02 
238  1392.94  1.16902347e-01 4.46067081e+01 3.83903590e+02 
237  1394.37  1.20698551e-01 4.56406762e+01 3.77654188e+02 
236  1395.80  1.25276451e-01 4.65381365e+01 3.71409569e+02 
235  1397.23  1.24180464e-01 4.53712330e+01 3.65169724e+02 
234  1398.66  1.27150344e-01 4.52164004e+01 3.58934646e+02 
233  1400.09  1.32539656e-01 4.68030235e+01 3.52745516e+02 
232  1401.52  1.31237784e-01 4.55968823e+01 3.47168055e+02 
231  1402.94  1.35439196e-01 4.62975828e+01 3.41594841e+02 
230  1404.37  1.37033822e-01 4.59521195e+01 3.36025867e+02 
229  1405.79  1.35244515e-01 4.46992741e+01 3.30461126e+02 
228  1407.22  1.36644144e-01 4.41552585e+01 3.24900611e+02 
227  1408.64  1.40633100e-01 4.49738223e+01 3.19344315e+02 
226  1410.06  1.43332192e-01 4.49641988e+01 3.13880778e+02 
225  1411.48  1.43432077e-01 4.45290535e+01 3.10398976e+02 
224  1412.90  1.43851594e-01 4.35306819e+01 3.06919808e+02 
223  1414.32  1.46087714e-01 4.43386323e+01 3.03443272e+02 
222  1415.73  1.46247158e-01 4.38428315e+01 2.99969363e+02 
221  1417.15  1.47627745e-01 4.37917023e+01 2.96498076e+02 
220  1418.56  1.50313412e-01 4.40456480e+01 2.93029407e+02 
219  1419.98  1.50700848e-01 4.36579066e+01 2.89563354e+02 
218  1421.39  1.52876519e-01 4.39727781e+01 2.87498993e+02 
217  1422.80  1.54044283e-01 4.39995498e+01 2.85458060e+02 
216  1424.21  1.54711773e-01 4.38647212e+01 2.83418663e+02 
215  1425.62  1.53973256e-01 4.33590659e+01 2.81380798e+02 
214  1427.03  1.54331921e-01 4.27784142e+01 2.79344465e+02 
213  1428.44  1.54653484e-01 4.29161444e+01 2.77309660e+02 
212  1429.84  1.55082351e-01 4.27173377e+01 2.75276383e+02 
211  1431.25  1.54353864e-01 4.23257799e+01 2.74062416e+02 
210  1432.65  1.54274988e-01 4.20420862e+01 2.72951827e+02 
209  1434.06  1.55185782e-01 4.22088481e+01 2.71842070e+02 
208  1435.46  1.56355503e-01 4.23295912e+01 2.70733144e+02 
207  1436.86  1.56494915e-01 4.22346347e+01 2.69625049e+02 
206  1438.26  1.57517326e-01 4.21497743e+01 2.68517782e+02 
205  1439.66  1.56471794e-01 4.18718174e+01 2.67411343e+02 
204  1441.05  1.57419002e-01 4.17452636e+01 2.66464991e+02 
203  1442.45  1.56840945e-01 4.17054495e+01 2.65571107e+02 
202  1443.85  1.56833722e-01 4.12256004e+01 2.64677890e+02 
201  1445.24  1.56844245e-01 4.12307722e+01 2.63785340e+02 
200  1446.64  1.58852873e-01 4.18351888e+01 2.62893457e+02 
199  1448.03  1.58383102e-01 4.11777408e+01 2.62002239e+02 
198  1449.42  1.60055110e-01 4.17753185e+01 2.61111686e+02 
197  1450.81  1.60625714e-01 4.18719986e+01 2.60492234e+02 
196  1452.20  1.60564148e-01 4.17529927e+01 2.60067073e+02 
195  1453.59  1.61372036e-01 4.19242010e+01 2.59642229e+02 
194  1454.97  1.62534907e-01 4.22013429e+01 2.59217702e+02 
193  1456.36  1.61925590e-01 4.19478346e+01 2.58793492e+02 
192  1457.75  1.62402651e-01 4.17872942e+01 2.58369597e+02 
191  1459.13  1.62630535e-01 4.19796950e+01 2.57946018e+02 
190  1460.51  1.62383182e-01 4.16281987e+01 2.57647112e+02 
189  1461.90  1.58972325e-01 4.07007113e+01 2.57558652e+02 
188  1463.28  1.61462861e-01 4.13576166e+01 2.57470259e+02 
187  1464.66  1.60837686e-01 4.14356560e+01 2.57381931e+02 
186  1466.04  1.61869990e-01 4.16987890e+01 2.57293669e+02 
185  1467.41  1.60185864e-01 4.12548426e+01 2.57205472e+02 
