% C0 (TOA Count Rate, /ms) for 4STAR VIS spectrometer (1044 channels) derived from 20150916starsun.mat and recorded on 2015-09-24 09:32:37.
% Tentative C0, to be replaced once Langley plot is made; see 20150916ground.ppt
Pix Wavelength C0 C0err
0 173.18 0.00000000e+000 0.00000000e+000 
1 173.97 -1.00000000e+000 -1.00000000e+000 
2 174.77 -1.00000000e+000 -1.00000000e+000 
3 175.56 -1.00000000e+000 -1.00000000e+000 
4 176.36 -1.00000000e+000 -1.00000000e+000 
5 177.15 -1.00000000e+000 -1.00000000e+000 
6 177.94 -1.00000000e+000 -1.00000000e+000 
7 178.74 -1.00000000e+000 -1.00000000e+000 
8 179.53 -1.00000000e+000 -1.00000000e+000 
9 180.33 -1.00000000e+000 -1.00000000e+000 
10 181.12 -1.00000000e+000 -1.00000000e+000 
11 181.92 -1.00000000e+000 -1.00000000e+000 
12 182.71 -1.00000000e+000 -1.00000000e+000 
13 183.51 -1.00000000e+000 -1.00000000e+000 
14 184.30 -1.00000000e+000 -1.00000000e+000 
15 185.10 -1.00000000e+000 -1.00000000e+000 
16 185.89 -1.00000000e+000 -1.00000000e+000 
17 186.69 -1.00000000e+000 -1.00000000e+000 
18 187.49 -1.00000000e+000 -1.00000000e+000 
19 188.28 -1.00000000e+000 -1.00000000e+000 
20 189.08 -1.00000000e+000 -1.00000000e+000 
21 189.88 -1.00000000e+000 -1.00000000e+000 
22 190.67 -1.00000000e+000 -1.00000000e+000 
23 191.47 -1.00000000e+000 -1.00000000e+000 
24 192.27 -1.00000000e+000 -1.00000000e+000 
25 193.07 -1.00000000e+000 -1.00000000e+000 
26 193.86 -1.00000000e+000 -1.00000000e+000 
27 194.66 -1.00000000e+000 -1.00000000e+000 
28 195.46 -1.00000000e+000 -1.00000000e+000 
29 196.26 -1.00000000e+000 -1.00000000e+000 
30 197.05 -1.00000000e+000 -1.00000000e+000 
31 197.85 -1.00000000e+000 -1.00000000e+000 
32 198.65 -1.00000000e+000 -1.00000000e+000 
33 199.45 -1.00000000e+000 -1.00000000e+000 
34 200.25 -1.00000000e+000 -1.00000000e+000 
35 201.05 -1.00000000e+000 -1.00000000e+000 
36 201.85 -1.00000000e+000 -1.00000000e+000 
37 202.64 -1.00000000e+000 -1.00000000e+000 
38 203.44 -1.00000000e+000 -1.00000000e+000 
39 204.24 -1.00000000e+000 -1.00000000e+000 
40 205.04 -1.00000000e+000 -1.00000000e+000 
41 205.84 -1.00000000e+000 -1.00000000e+000 
42 206.64 -1.00000000e+000 -1.00000000e+000 
43 207.44 -1.00000000e+000 -1.00000000e+000 
44 208.24 -1.00000000e+000 -1.00000000e+000 
45 209.04 -1.00000000e+000 -1.00000000e+000 
46 209.84 -1.00000000e+000 -1.00000000e+000 
47 210.64 -1.00000000e+000 -1.00000000e+000 
48 211.44 -1.00000000e+000 -1.00000000e+000 
49 212.24 -1.00000000e+000 -1.00000000e+000 
50 213.05 -1.00000000e+000 -1.00000000e+000 
51 213.85 2.96599444e+303 2.96599444e+302 
52 214.65 5.51301056e+295 5.51301056e+294 
53 215.45 7.95314844e+287 7.95314844e+286 
54 216.25 1.07893411e+280 1.07893411e+279 
55 217.05 2.09517849e+272 2.09517849e+271 
56 217.85 3.27572633e+264 3.27572633e+263 
57 218.65 6.56737102e+256 6.56737102e+255 
58 219.46 1.18310510e+249 1.18310510e+248 
59 220.26 2.36791320e+241 2.36791320e+240 
60 221.06 4.05536020e+233 4.05536020e+232 
61 221.86 9.16270828e+225 9.16270828e+224 
62 222.66 1.46913247e+218 1.46913247e+217 
63 223.47 4.59213201e+210 4.59213201e+209 
64 224.27 1.07741979e+203 1.07741979e+202 
65 225.07 6.00224121e+195 6.00224121e+194 
66 225.87 4.71521666e+188 4.71521666e+187 
67 226.68 1.23656951e+182 1.23656951e+181 
68 227.48 1.27128423e+176 1.27128423e+175 
69 228.28 1.07073770e+171 1.07073770e+170 
70 229.09 2.45053642e+167 2.45053642e+166 
71 229.89 2.16906403e+165 2.16906403e+164 
72 230.69 1.50369092e+165 1.50369092e+164 
73 231.49 7.44944910e+166 7.44944910e+165 
74 232.30 3.78087201e+170 3.78087201e+169 
75 233.10 6.43857512e+175 6.43857512e+174 
76 233.91 2.54728743e+182 2.54728743e+181 
77 234.71 7.62025167e+189 7.62025167e+188 
78 235.51 8.59398507e+197 8.59398507e+196 
79 236.32 2.61177758e+206 2.61177758e+205 
80 237.12 1.52773516e+215 1.52773516e+214 
81 237.92 6.57165703e+223 6.57165703e+222 
82 238.73 2.39141777e+232 2.39141777e+231 
83 239.53 1.10689204e+241 1.10689204e+240 
84 240.34 4.25877134e+249 4.25877134e+248 
85 241.14 9.44398911e+257 9.44398911e+256 
86 241.94 1.29893814e+266 1.29893814e+265 
87 242.75 7.89778273e+273 7.89778273e+272 
88 243.55 3.71196030e+281 3.71196030e+280 
89 244.36 6.28328369e+288 6.28328369e+287 
90 245.16 5.54852647e+295 5.54852647e+294 
91 245.97 1.46661751e+302 1.46661751e+301 
92 246.77 -1.00000000e+000 -1.00000000e+000 
93 247.58 -1.00000000e+000 -1.00000000e+000 
94 248.38 -1.00000000e+000 -1.00000000e+000 
95 249.19 -1.00000000e+000 -1.00000000e+000 
96 249.99 -1.00000000e+000 -1.00000000e+000 
97 250.80 -1.00000000e+000 -1.00000000e+000 
98 251.60 -1.00000000e+000 -1.00000000e+000 
99 252.41 -1.00000000e+000 -1.00000000e+000 
100 253.21 -1.00000000e+000 -1.00000000e+000 
101 254.02 -1.00000000e+000 -1.00000000e+000 
102 254.83 -1.00000000e+000 -1.00000000e+000 
103 255.63 -1.00000000e+000 -1.00000000e+000 
104 256.44 -1.00000000e+000 -1.00000000e+000 
105 257.24 -1.00000000e+000 -1.00000000e+000 
106 258.05 -1.00000000e+000 -1.00000000e+000 
107 258.85 -1.00000000e+000 -1.00000000e+000 
108 259.66 -1.00000000e+000 -1.00000000e+000 
109 260.46 -1.00000000e+000 -1.00000000e+000 
110 261.27 -1.00000000e+000 -1.00000000e+000 
111 262.08 -1.00000000e+000 -1.00000000e+000 
112 262.88 1.73380018e+304 1.73380018e+303 
113 263.69 3.84984421e+297 3.84984421e+296 
114 264.50 5.20480586e+290 5.20480586e+289 
115 265.30 2.11027257e+283 2.11027257e+282 
116 266.11 2.23117931e+275 2.23117931e+274 
117 266.91 8.52593138e+266 8.52593138e+265 
118 267.72 5.35624565e+257 5.35624565e+256 
119 268.53 3.64118647e+248 3.64118647e+247 
120 269.33 2.02405288e+239 2.02405288e+238 
121 270.14 1.84943061e+230 1.84943061e+229 
122 270.95 1.09283422e+221 1.09283422e+220 
123 271.75 5.03383116e+211 5.03383116e+210 
124 272.56 8.76349370e+201 8.76349370e+200 
125 273.37 1.27346788e+192 1.27346788e+191 
126 274.17 1.70267742e+182 1.70267742e+181 
127 274.98 3.86056076e+172 3.86056076e+171 
128 275.79 1.88255841e+163 1.88255841e+162 
129 276.59 2.45639474e+154 2.45639474e+153 
130 277.40 4.65424609e+145 4.65424609e+144 
131 278.21 7.55010021e+136 7.55010021e+135 
132 279.01 2.54210050e+128 2.54210050e+127 
133 279.82 9.25143235e+119 9.25143235e+118 
134 280.63 4.47535943e+111 4.47535943e+110 
135 281.44 4.56826959e+103 4.56826959e+102 
136 282.24 1.29483711e+096 1.29483711e+095 
137 283.05 1.61109481e+089 1.61109481e+088 
138 283.86 3.28327090e+082 3.28327090e+081 
139 284.66 1.92548288e+076 1.92548288e+075 
140 285.47 1.85309380e+070 1.85309380e+069 
141 286.28 6.11816823e+064 6.11816823e+063 
142 287.09 4.58528564e+059 4.58528564e+058 
143 287.89 4.55220642e+054 4.55220642e+053 
144 288.70 9.72477346e+049 9.72477346e+048 
145 289.51 5.53201386e+045 5.53201386e+044 
146 290.32 7.17539830e+041 7.17539830e+040 
147 291.12 1.57695914e+038 1.57695914e+037 
148 291.93 7.21858280e+034 7.21858280e+033 
149 292.74 5.20086246e+031 5.20086246e+030 
150 293.55 7.07896434e+028 7.07896434e+027 
151 294.35 1.66001499e+026 1.66001499e+025 
152 295.16 7.21728331e+023 7.21728331e+022 
153 295.97 4.38754602e+021 4.38754602e+020 
154 296.78 5.07335853e+019 5.07335853e+018 
155 297.58 7.37447722e+017 7.37447722e+016 
156 298.39 1.48096686e+016 1.48096686e+015 
157 299.20 4.96787245e+014 4.96787245e+013 
158 300.01 2.60744479e+013 2.60744479e+012 
159 300.81 1.80263385e+012 1.80263385e+011 
160 301.62 1.38993685e+011 1.38993685e+010 
161 302.43 1.91398921e+010 1.91398921e+009 
162 303.24 2.22851367e+009 2.22851367e+008 
163 304.05 3.99866709e+008 3.99866709e+007 
164 304.85 8.75475555e+007 8.75475555e+006 
165 305.66 2.29312715e+007 2.29312715e+006 
166 306.47 5.03680150e+006 5.03680150e+005 
167 307.28 1.93346796e+006 1.93346796e+005 
168 308.08 5.70186386e+005 5.70186386e+004 
169 308.89 2.46847727e+005 2.46847727e+004 
170 309.70 1.02941044e+005 1.02941044e+004 
171 310.51 4.99880447e+004 4.99880447e+003 
172 311.32 2.32943328e+004 2.32943328e+003 
173 312.12 1.20392080e+004 1.20392080e+003 
174 312.93 6.82145631e+003 6.82145631e+002 
175 313.74 3.46434010e+003 3.46434010e+002 
176 314.55 2.48480990e+003 2.48480990e+002 
177 315.36 1.55458114e+003 1.55458114e+002 
178 316.16 1.03353639e+003 1.03353639e+002 
179 316.97 8.06204813e+002 8.06204813e+001 
180 317.78 5.60293555e+002 5.60293555e+001 
181 318.59 4.14282014e+002 4.14282014e+001 
182 319.39 2.85326263e+002 2.85326263e+001 
183 320.20 2.65037078e+002 2.65037078e+001 
184 321.01 1.83272472e+002 1.83272472e+001 
185 321.82 1.56649615e+002 1.56649615e+001 
186 322.63 1.31881800e+002 1.31881800e+001 
187 323.43 1.01577039e+002 1.01577039e+001 
188 324.24 8.98814733e+001 8.98814733e+000 
189 325.05 7.69602189e+001 7.69602189e+000 
190 325.86 6.41321595e+001 6.41321595e+000 
191 326.67 5.03551830e+001 5.03551830e+000 
192 327.48 4.94669505e+001 4.94669505e+000 
193 328.28 4.29627142e+001 4.29627142e+000 
194 329.09 3.86387643e+001 3.86387643e+000 
195 329.90 3.37602477e+001 3.37602477e+000 
196 330.71 3.31187294e+001 3.31187294e+000 
197 331.51 3.04209333e+001 3.04209333e+000 
198 332.32 2.57362475e+001 2.57362475e+000 
199 333.13 2.63943033e+001 2.63943033e+000 
200 333.94 2.41914551e+001 2.41914551e+000 
201 334.75 2.40901179e+001 2.40901179e+000 
202 335.56 2.24985850e+001 2.24985850e+000 
203 336.36 2.32911837e+001 2.32911837e+000 
204 337.17 2.49583216e+001 2.49583216e+000 
205 337.98 2.82494214e+001 2.82494214e+000 
206 338.79 3.09087740e+001 3.09087740e+000 
207 339.59 3.47458785e+001 3.47458785e+000 
208 340.40 3.90216712e+001 3.90216712e+000 
209 341.21 4.14025511e+001 4.14025511e+000 
210 342.02 4.58891434e+001 4.58891434e+000 
211 342.83 4.92369398e+001 4.92369398e+000 
212 343.64 4.93952897e+001 4.93952897e+000 
213 344.44 5.01542128e+001 5.01542128e+000 
214 345.25 5.46369229e+001 5.46369229e+000 
215 346.06 5.78536693e+001 5.78536693e+000 
216 346.87 6.02292711e+001 6.02292711e+000 
217 347.67 6.20430013e+001 6.20430013e+000 
218 348.48 6.32542507e+001 6.32542507e+000 
219 349.29 6.62678026e+001 6.62678026e+000 
220 350.10 7.19418608e+001 7.19418608e+000 
221 350.91 7.52828112e+001 7.52828112e+000 
222 351.71 7.52276709e+001 7.52276709e+000 
223 352.52 7.64940902e+001 7.64940902e+000 
224 353.33 8.25771515e+001 8.25771515e+000 
225 354.14 8.98402891e+001 8.98402891e+000 
226 354.94 9.31167379e+001 9.31167379e+000 
227 355.75 9.10859805e+001 9.10859805e+000 
228 356.56 8.58083763e+001 8.58083763e+000 
229 357.37 8.06354040e+001 8.06354040e+000 
230 358.18 7.99233465e+001 7.99233465e+000 
231 358.98 8.92496251e+001 8.92496251e+000 
232 359.79 1.01964032e+002 1.01964032e+001 
233 360.60 1.02940765e+002 1.02940765e+001 
234 361.41 1.01297568e+002 1.01297568e+001 
235 362.21 1.07011308e+002 1.07011308e+001 
236 363.02 1.12814302e+002 1.12814302e+001 
237 363.83 1.16563382e+002 1.16563382e+001 
238 364.64 1.21976170e+002 1.21976170e+001 
239 365.44 1.33147852e+002 1.33147852e+001 
240 366.25 1.42198758e+002 1.42198758e+001 
241 367.06 1.43246575e+002 1.43246575e+001 
242 367.87 1.41173594e+002 1.41173594e+001 
243 368.67 1.43762185e+002 1.43762185e+001 
244 369.48 1.50260397e+002 1.50260397e+001 
245 370.29 1.51748879e+002 1.51748879e+001 
246 371.10 1.50489854e+002 1.50489854e+001 
247 371.90 1.46873900e+002 1.46873900e+001 
248 372.71 1.39060314e+002 1.39060314e+001 
249 373.52 1.31946447e+002 1.31946447e+001 
250 374.33 1.31873099e+002 1.31873099e+001 
251 375.13 1.41693679e+002 1.41693679e+001 
252 375.94 1.54684617e+002 1.54684617e+001 
253 376.75 1.68637257e+002 1.68637257e+001 
254 377.55 1.85168157e+002 1.85168157e+001 
255 378.36 1.89432275e+002 1.89432275e+001 
256 379.17 1.79531925e+002 1.79531925e+001 
257 379.98 1.76328711e+002 1.76328711e+001 
258 380.78 1.76698019e+002 1.76698019e+001 
259 381.59 1.61029232e+002 1.61029232e+001 
260 382.40 1.37354974e+002 1.37354974e+001 
261 383.21 1.27372063e+002 1.27372063e+001 
262 384.01 1.39355398e+002 1.39355398e+001 
263 384.82 1.57958449e+002 1.57958449e+001 
264 385.63 1.65363390e+002 1.65363390e+001 
265 386.43 1.67048753e+002 1.67048753e+001 
266 387.24 1.68725338e+002 1.68725338e+001 
267 388.05 1.71755219e+002 1.71755219e+001 
268 388.85 1.83142536e+002 1.83142536e+001 
269 389.66 2.00923410e+002 2.00923410e+001 
270 390.47 2.15031054e+002 2.15031054e+001 
271 391.27 2.16652524e+002 2.16652524e+001 
272 392.08 1.93200411e+002 1.93200411e+001 
273 392.89 1.56579638e+002 1.56579638e+001 
274 393.69 1.50143516e+002 1.50143516e+001 
275 394.50 1.82018663e+002 1.82018663e+001 
276 395.31 2.03804826e+002 2.03804826e+001 
277 396.11 1.88686597e+002 1.88686597e+001 
278 396.92 1.78846300e+002 1.78846300e+001 
279 397.73 2.14159770e+002 2.14159770e+001 
280 398.53 2.65155377e+002 2.65155377e+001 
281 399.34 2.96271540e+002 2.96271540e+001 
282 400.15 3.11349182e+002 3.11349182e+001 
283 400.95 3.22321248e+002 3.22321248e+001 
284 401.76 3.31156656e+002 3.31156656e+001 
285 402.57 3.33394584e+002 3.33394584e+001 
286 403.37 3.31030130e+002 3.31030130e+001 
287 404.18 3.28995343e+002 3.28995343e+001 
288 404.98 3.27048110e+002 3.27048110e+001 
289 405.79 3.25070315e+002 3.25070315e+001 
290 406.60 3.25880248e+002 3.25880248e+001 
291 407.40 3.33963326e+002 3.33963326e+001 
292 408.21 3.46621176e+002 3.46621176e+001 
293 409.02 3.51091246e+002 3.51091246e+001 
294 409.82 3.46110418e+002 3.46110418e+001 
295 410.63 3.50907076e+002 3.50907076e+001 
296 411.44 3.67862648e+002 3.67862648e+001 
297 412.24 3.78431882e+002 3.78431882e+001 
298 413.05 3.80129366e+002 3.80129366e+001 
299 413.85 3.81613095e+002 3.81613095e+001 
300 414.66 3.84353703e+002 3.84353703e+001 
301 415.46 3.88226066e+002 3.88226066e+001 
302 416.27 3.91082039e+002 3.91082039e+001 
303 417.08 3.88093746e+002 3.88093746e+001 
304 417.88 3.83533491e+002 3.83533491e+001 
305 418.69 3.83407829e+002 3.83407829e+001 
306 419.49 3.86855631e+002 3.86855631e+001 
307 420.30 3.94445916e+002 3.94445916e+001 
308 421.11 4.01448565e+002 4.01448565e+001 
309 421.91 3.99388465e+002 3.99388465e+001 
310 422.72 3.93340712e+002 3.93340712e+001 
311 423.52 3.94145762e+002 3.94145762e+001 
312 424.33 3.98881047e+002 3.98881047e+001 
313 425.13 4.00870590e+002 4.00870590e+001 
314 425.94 3.99810040e+002 3.99810040e+001 
315 426.74 3.96955806e+002 3.96955806e+001 
316 427.55 3.93206937e+002 3.93206937e+001 
317 428.35 3.85431240e+002 3.85431240e+001 
318 429.16 3.66505382e+002 3.66505382e+001 
319 429.96 3.45416322e+002 3.45416322e+001 
320 430.77 3.50046183e+002 3.50046183e+001 
321 431.58 3.84438250e+002 3.84438250e+001 
322 432.38 4.18035135e+002 4.18035135e+001 
323 433.19 4.29741673e+002 4.29741673e+001 
324 433.99 4.32636524e+002 4.32636524e+001 
325 434.80 4.44361975e+002 4.44361975e+001 
326 435.60 4.63687922e+002 4.63687922e+001 
327 436.41 4.75149709e+002 4.75149709e+001 
328 437.21 4.70027553e+002 4.70027553e+001 
329 438.02 4.58070179e+002 4.58070179e+001 
330 438.82 4.55505491e+002 4.55505491e+001 
331 439.63 4.65141305e+002 4.65141305e+001 
332 440.43 4.80822189e+002 4.80822189e+001 
333 441.24 4.97479461e+002 4.97479461e+001 
334 442.04 5.11929610e+002 5.11929610e+001 
335 442.84 5.20321037e+002 5.20321037e+001 
336 443.65 5.23847762e+002 5.23847762e+001 
337 444.45 5.23344104e+002 5.23344104e+001 
338 445.26 5.19678868e+002 5.19678868e+001 
339 446.06 5.21233444e+002 5.21233444e+001 
340 446.87 5.32074702e+002 5.32074702e+001 
341 447.67 5.45823234e+002 5.45823234e+001 
342 448.48 5.55581945e+002 5.55581945e+001 
343 449.28 5.65173830e+002 5.65173830e+001 
344 450.09 5.76564090e+002 5.76564090e+001 
345 450.89 5.82311118e+002 5.82311118e+001 
346 451.69 5.75128911e+002 5.75128911e+001 
347 452.50 5.61637768e+002 5.61637768e+001 
348 453.30 5.54870814e+002 5.54870814e+001 
349 454.11 5.57523906e+002 5.57523906e+001 
350 454.91 5.65334166e+002 5.65334166e+001 
351 455.72 5.73879445e+002 5.73879445e+001 
352 456.52 5.80916588e+002 5.80916588e+001 
353 457.32 5.82836112e+002 5.82836112e+001 
354 458.13 5.79918799e+002 5.79918799e+001 
355 458.93 5.77593882e+002 5.77593882e+001 
356 459.74 5.80352851e+002 5.80352851e+001 
357 460.54 5.87543472e+002 5.87543472e+001 
358 461.34 5.95634755e+002 5.95634755e+001 
359 462.15 6.00470814e+002 6.00470814e+001 
360 462.95 5.99512878e+002 5.99512878e+001 
361 463.76 5.94513742e+002 5.94513742e+001 
362 464.56 5.89970354e+002 5.89970354e+001 
363 465.36 5.87230831e+002 5.87230831e+001 
364 466.17 5.85509045e+002 5.85509045e+001 
365 466.97 5.85468824e+002 5.85468824e+001 
366 467.77 5.88190518e+002 5.88190518e+001 
367 468.58 5.91533240e+002 5.91533240e+001 
368 469.38 5.91722603e+002 5.91722603e+001 
369 470.18 5.91679333e+002 5.91679333e+001 
370 470.99 5.97441614e+002 5.97441614e+001 
371 471.79 6.06844345e+002 6.06844345e+001 
372 472.59 6.14313536e+002 6.14313536e+001 
373 473.40 6.18908011e+002 6.18908011e+001 
374 474.20 6.22547603e+002 6.22547603e+001 
375 475.00 6.24951406e+002 6.24951406e+001 
376 475.81 6.26294980e+002 6.26294980e+001 
377 476.61 6.29923013e+002 6.29923013e+001 
378 477.41 6.36939188e+002 6.36939188e+001 
379 478.21 6.43659428e+002 6.43659428e+001 
380 479.02 6.48055580e+002 6.48055580e+001 
381 479.82 6.50896841e+002 6.50896841e+001 
382 480.62 6.54104385e+002 6.54104385e+001 
383 481.43 6.55957939e+002 6.55957939e+001 
384 482.23 6.55013789e+002 6.55013789e+001 
385 483.03 6.50085627e+002 6.50085627e+001 
386 483.84 6.39354961e+002 6.39354961e+001 
387 484.64 6.18626206e+002 6.18626206e+001 
388 485.44 5.92807495e+002 5.92807495e+001 
389 486.24 5.78164025e+002 5.78164025e+001 
390 487.05 5.82974266e+002 5.82974266e+001 
391 487.85 6.01172401e+002 6.01172401e+001 
392 488.65 6.20821987e+002 6.20821987e+001 
393 489.45 6.34510419e+002 6.34510419e+001 
394 490.26 6.39930822e+002 6.39930822e+001 
395 491.06 6.37672922e+002 6.37672922e+001 
396 491.86 6.33043918e+002 6.33043918e+001 
397 492.66 6.33411270e+002 6.33411270e+001 
398 493.46 6.40510952e+002 6.40510952e+001 
399 494.27 6.48691328e+002 6.48691328e+001 
400 495.07 6.53436421e+002 6.53436421e+001 
401 495.87 6.55576802e+002 6.55576802e+001 
402 496.67 6.53659212e+002 6.53659212e+001 
403 497.48 6.49052777e+002 6.49052777e+001 
404 498.28 6.43831622e+002 6.43831622e+001 
405 499.08 6.37884865e+002 6.37884865e+001 
406 499.88 6.31014355e+002 6.31014355e+001 
407 500.68 6.24114284e+002 6.24114284e+001 
408 501.48 6.19242987e+002 6.19242987e+001 
409 502.29 6.18453019e+002 6.18453019e+001 
410 503.09 6.19423747e+002 6.19423747e+001 
411 503.89 6.22699673e+002 6.22699673e+001 
412 504.69 6.29542212e+002 6.29542212e+001 
413 505.49 6.36933021e+002 6.36933021e+001 
414 506.29 6.39680818e+002 6.39680818e+001 
415 507.09 6.37122381e+002 6.37122381e+001 
416 507.90 6.34516841e+002 6.34516841e+001 
417 508.70 6.35102132e+002 6.35102132e+001 
418 509.50 6.37678376e+002 6.37678376e+001 
419 510.30 6.40460708e+002 6.40460708e+001 
420 511.10 6.41032483e+002 6.41032483e+001 
421 511.90 6.38147271e+002 6.38147271e+001 
422 512.70 6.31700196e+002 6.31700196e+001 
423 513.51 6.24308257e+002 6.24308257e+001 
424 514.31 6.18683096e+002 6.18683096e+001 
425 515.11 6.10108724e+002 6.10108724e+001 
426 515.91 5.94161366e+002 5.94161366e+001 
427 516.71 5.76959317e+002 5.76959317e+001 
428 517.51 5.67519462e+002 5.67519462e+001 
429 518.31 5.71971122e+002 5.71971122e+001 
430 519.11 5.86390795e+002 5.86390795e+001 
431 519.91 6.00887735e+002 6.00887735e+001 
432 520.71 6.11332301e+002 6.11332301e+001 
433 521.51 6.15255930e+002 6.15255930e+001 
434 522.32 6.16721112e+002 6.16721112e+001 
435 523.12 6.20232328e+002 6.20232328e+001 
436 523.92 6.24444036e+002 6.24444036e+001 
437 524.72 6.24142867e+002 6.24142867e+001 
438 525.52 6.14780128e+002 6.14780128e+001 
439 526.32 6.02832045e+002 6.02832045e+001 
440 527.12 6.00324638e+002 6.00324638e+001 
441 527.92 6.09478357e+002 6.09478357e+001 
442 528.72 6.23867237e+002 6.23867237e+001 
443 529.52 6.35197592e+002 6.35197592e+001 
444 530.32 6.39823740e+002 6.39823740e+001 
445 531.12 6.37294030e+002 6.37294030e+001 
446 531.92 6.30489091e+002 6.30489091e+001 
447 532.72 6.24034370e+002 6.24034370e+001 
