% C0 (TOA Count Rate, /ms) for 4STAR NIR spectrometer (512 channels) derived from 20151104starsun.mat and recorded on 2016-04-07 22:41:30.
% Data outside 2.0x the STD of 501 nm Langley residuals were screened out.
Pix Wavelength C0 C0err
511 949.79 2.99531702e+00 8.98595107e-02 
510 949.79 2.30702429e+00 6.92107287e-02 
509 951.68 2.88894026e+00 8.66682079e-02 
508 953.57 3.00908494e+00 9.02725483e-02 
507 955.46 3.41959765e+00 1.02587929e-01 
506 957.34 3.59674976e+00 1.07902493e-01 
505 959.22 4.13518846e+00 1.24055654e-01 
504 961.10 4.41363758e+00 1.32409127e-01 
503 962.98 5.05040701e+00 1.51512210e-01 
502 964.85 5.38921407e+00 1.61676422e-01 
501 966.72 6.22908341e+00 1.86872502e-01 
500 968.59 6.65384766e+00 1.99615430e-01 
499 970.45 7.17265603e+00 2.15179681e-01 
498 972.32 7.03154597e+00 2.10946379e-01 
497 974.18 7.28002847e+00 2.18400854e-01 
496 976.04 7.28806012e+00 2.18641804e-01 
495 977.89 7.83944967e+00 2.35183490e-01 
494 979.74 8.03810907e+00 2.41143272e-01 
493 981.59 8.57601897e+00 2.57280569e-01 
492 983.44 8.72371540e+00 2.61711462e-01 
491 985.29 9.17904656e+00 2.75371397e-01 
490 987.13 9.13004785e+00 2.73901436e-01 
489 988.97 9.45850826e+00 2.83755248e-01 
488 990.81 9.31045638e+00 2.79313691e-01 
487 992.65 9.52327551e+00 2.85698265e-01 
486 994.48 9.35266134e+00 2.80579840e-01 
485 996.31 9.53683617e+00 2.86105085e-01 
484 998.14 9.27615426e+00 2.78284628e-01 
483 999.97 9.41842812e+00 2.82552844e-01 
482 1001.79 9.13585909e+00 2.74075773e-01 
481 1003.62 9.21310311e+00 2.76393093e-01 
480 1005.44 9.01140082e+00 2.70342025e-01 
479 1007.25 9.26937013e+00 2.78081104e-01 
478 1009.07 9.05808862e+00 2.71742659e-01 
477 1010.88 9.22812469e+00 2.76843741e-01 
476 1012.69 8.97917610e+00 2.69375283e-01 
475 1014.50 9.09078013e+00 2.72723404e-01 
474 1016.31 8.85717898e+00 2.65715369e-01 
473 1018.11 8.99676790e+00 2.69903037e-01 
472 1019.91 8.73538638e+00 2.62061591e-01 
471 1021.71 8.88541621e+00 2.66562486e-01 
470 1023.51 8.64687967e+00 2.59406390e-01 
469 1025.30 8.83791697e+00 2.65137509e-01 
468 1027.09 8.73337967e+00 2.62001390e-01 
467 1028.88 8.89487548e+00 2.66846264e-01 
466 1030.67 8.75817173e+00 2.62745152e-01 
465 1032.46 8.95046872e+00 2.68514062e-01 
464 1034.24 8.78424539e+00 2.63527362e-01 
463 1036.02 8.98658834e+00 2.69597650e-01 
462 1037.80 8.85955776e+00 2.65786733e-01 
461 1039.58 9.08847499e+00 2.72654250e-01 
460 1041.35 8.92986616e+00 2.67895985e-01 
459 1043.12 9.10120554e+00 2.73036166e-01 
458 1044.89 9.01857568e+00 2.70557270e-01 
457 1046.66 9.24439300e+00 2.77331790e-01 
456 1048.43 9.16650640e+00 2.74995192e-01 
455 1050.19 9.40201415e+00 2.82060424e-01 
454 1051.95 9.26357542e+00 2.77907263e-01 
453 1053.71 9.52858466e+00 2.85857540e-01 
452 1055.47 9.35621114e+00 2.80686334e-01 
451 1057.23 9.49603830e+00 2.84881149e-01 
450 1058.98 9.35940277e+00 2.80782083e-01 
449 1060.73 9.56321362e+00 2.86896409e-01 
448 1062.48 9.36687209e+00 2.81006163e-01 
447 1064.23 9.51563197e+00 2.85468959e-01 
446 1065.97 9.22748532e+00 2.76824560e-01 
445 1067.71 9.27722362e+00 2.78316709e-01 
444 1069.46 9.01894679e+00 2.70568404e-01 
443 1071.19 9.08484272e+00 2.72545282e-01 
442 1072.93 8.87574383e+00 2.66272315e-01 
441 1074.67 8.90484234e+00 2.67145270e-01 
440 1076.40 8.67541174e+00 2.60262352e-01 
439 1078.13 8.68904276e+00 2.60671283e-01 
438 1079.86 8.41806314e+00 2.52541894e-01 
437 1081.58 8.43426583e+00 2.53027975e-01 
436 1083.31 8.24591460e+00 2.47377438e-01 
435 1085.03 8.39911001e+00 2.51973300e-01 
434 1086.75 8.25432529e+00 2.47629759e-01 
433 1088.47 8.36313522e+00 2.50894057e-01 
432 1090.19 8.13280820e+00 2.43984246e-01 
431 1091.90 8.12096097e+00 2.43628829e-01 
430 1093.61 7.85487914e+00 2.35646374e-01 
429 1095.33 7.87650418e+00 2.36295125e-01 
428 1097.03 7.64710034e+00 2.29413010e-01 
427 1098.74 7.61783690e+00 2.28535107e-01 
426 1100.45 7.44560135e+00 2.23368041e-01 
425 1102.15 7.48164563e+00 2.24449369e-01 
424 1103.85 7.28041624e+00 2.18412487e-01 
423 1105.55 7.28138730e+00 2.18441619e-01 
422 1107.25 6.98594768e+00 2.09578430e-01 
421 1108.94 6.77815475e+00 2.03344643e-01 
420 1110.64 5.98433171e+00 1.79529951e-01 
419 1112.33 5.01344541e+00 1.50403362e-01 
418 1114.02 3.83883121e+00 1.15164936e-01 
417 1115.70 3.14974565e+00 9.44923694e-02 
416 1117.39 2.61966547e+00 7.85899642e-02 
415 1119.07 2.30796615e+00 6.92389845e-02 
414 1120.76 1.14123359e+00 3.42370077e-02 
413 1122.44 1.79178629e+00 5.37535886e-02 
412 1124.12 1.05133337e+00 3.15400012e-02 
411 1125.79 1.45515906e+00 4.36547718e-02 
410 1127.47 1.92302667e+00 5.76908001e-02 
409 1129.14 2.44346483e+00 7.33039448e-02 
408 1130.81 2.53432348e+00 7.60297043e-02 
407 1132.48 1.97863114e+00 5.93589341e-02 
406 1134.15 2.38992356e+00 7.16977068e-02 
405 1135.81 3.48072539e+00 1.04421762e-01 
404 1137.48 4.43946287e+00 1.33183886e-01 
403 1139.14 4.81266824e+00 1.44380047e-01 
402 1140.80 3.75833575e+00 1.12750073e-01 
401 1142.46 2.91356553e+00 8.74069660e-02 
400 1144.12 2.30664178e+00 6.91992535e-02 
399 1145.77 2.51307391e+00 7.53922173e-02 
398 1147.43 3.08909508e+00 9.26728523e-02 
397 1149.08 3.80487679e+00 1.14146304e-01 
396 1150.73 3.71936057e+00 1.11580817e-01 
395 1152.38 4.27393163e+00 1.28217949e-01 
394 1154.02 4.64704940e+00 1.39411482e-01 
393 1155.67 5.61514220e+00 1.68454266e-01 
392 1157.31 5.99779750e+00 1.79933925e-01 
391 1158.95 6.45529565e+00 1.93658869e-01 
390 1160.59 6.84449303e+00 2.05334791e-01 
389 1162.23 7.31179177e+00 2.19353753e-01 
388 1163.87 7.48163913e+00 2.24449174e-01 
387 1165.50 7.60319435e+00 2.28095831e-01 
386 1167.13 7.72248727e+00 2.31674618e-01 
385 1168.76 8.10975959e+00 2.43292788e-01 
384 1170.39 7.87761140e+00 2.36328342e-01 
383 1172.02 7.94198552e+00 2.38259566e-01 
382 1173.65 7.72889367e+00 2.31866810e-01 
381 1175.27 7.85539467e+00 2.35661840e-01 
380 1176.90 7.96166160e+00 2.38849848e-01 
379 1178.52 7.60262043e+00 2.28078613e-01 
378 1180.14 7.46380816e+00 2.23914245e-01 
377 1181.75 7.36533802e+00 2.20960141e-01 
376 1183.37 7.26861662e+00 2.18058499e-01 
375 1184.99 7.26472045e+00 2.17941613e-01 
374 1186.60 7.27167551e+00 2.18150265e-01 
373 1188.21 7.30462143e+00 2.19138643e-01 
372 1189.82 7.48895775e+00 2.24668732e-01 
371 1191.43 7.79094020e+00 2.33728206e-01 
370 1193.04 7.71759454e+00 2.31527836e-01 
369 1194.64 7.61321214e+00 2.28396364e-01 
368 1196.24 7.34239637e+00 2.20271891e-01 
367 1197.85 7.38860700e+00 2.21658210e-01 
366 1199.45 7.16602317e+00 2.14980695e-01 
365 1201.05 7.27907338e+00 2.18372201e-01 
364 1202.64 7.30831940e+00 2.19249582e-01 
363 1204.24 7.37494820e+00 2.21248446e-01 
362 1205.83 7.52333377e+00 2.25700013e-01 
361 1207.43 7.52885270e+00 2.25865581e-01 
360 1209.02 7.45803739e+00 2.23741122e-01 
359 1210.61 7.58322147e+00 2.27496644e-01 
358 1212.19 7.59275412e+00 2.27782624e-01 
357 1213.78 7.89141680e+00 2.36742504e-01 
356 1215.37 7.90733892e+00 2.37220168e-01 
355 1216.95 8.12140481e+00 2.43642144e-01 
354 1218.53 8.09390991e+00 2.42817297e-01 
353 1220.11 8.16818497e+00 2.45045549e-01 
352 1221.69 8.17370423e+00 2.45211127e-01 
351 1223.27 8.25304407e+00 2.47591322e-01 
350 1224.84 8.35830631e+00 2.50749189e-01 
349 1226.42 8.50161988e+00 2.55048596e-01 
348 1227.99 8.55516339e+00 2.56654902e-01 
347 1229.56 8.75450472e+00 2.62635142e-01 
346 1231.13 8.74403447e+00 2.62321034e-01 
345 1232.70 8.87111841e+00 2.66133552e-01 
344 1234.27 8.86138492e+00 2.65841547e-01 
343 1235.84 8.90727585e+00 2.67218276e-01 
342 1237.40 8.84812904e+00 2.65443871e-01 
341 1238.96 8.82729835e+00 2.64818950e-01 
340 1240.52 8.65405720e+00 2.59621716e-01 
339 1242.08 8.75677578e+00 2.62703273e-01 
338 1243.64 8.72545992e+00 2.61763798e-01 
337 1245.20 8.78141591e+00 2.63442477e-01 
336 1246.75 8.74537039e+00 2.62361112e-01 
335 1248.31 8.80017532e+00 2.64005260e-01 
334 1249.86 8.72526440e+00 2.61757932e-01 
333 1251.41 8.77243960e+00 2.63173188e-01 
332 1252.96 8.67313955e+00 2.60194186e-01 
331 1254.51 8.65771938e+00 2.59731581e-01 
330 1256.06 8.50526921e+00 2.55158076e-01 
329 1257.61 8.39069097e+00 2.51720729e-01 
328 1259.15 8.14527605e+00 2.44358281e-01 
327 1260.69 7.97224282e+00 2.39167285e-01 
326 1262.23 7.75357855e+00 2.32607356e-01 
325 1263.77 7.64610573e+00 2.29383172e-01 
324 1265.31 7.20102321e+00 2.16030696e-01 
323 1266.85 7.19287252e+00 2.15786176e-01 
322 1268.39 7.27440428e+00 2.18232128e-01 
321 1269.92 7.51455324e+00 2.25436597e-01 
320 1271.46 8.03138890e+00 2.40941667e-01 
319 1272.99 8.20917177e+00 2.46275153e-01 
318 1274.52 8.22775441e+00 2.46832632e-01 
317 1276.05 8.32533968e+00 2.49760191e-01 
316 1277.58 8.17683758e+00 2.45305127e-01 
315 1279.10 8.09258243e+00 2.42777473e-01 
314 1280.63 8.08199657e+00 2.42459897e-01 
313 1282.15 8.12550698e+00 2.43765209e-01 
312 1283.68 8.23191622e+00 2.46957487e-01 
311 1285.20 8.34765884e+00 2.50429765e-01 
310 1286.72 8.28342101e+00 2.48502630e-01 
309 1288.24 8.22875348e+00 2.46862604e-01 
308 1289.75 8.10587384e+00 2.43176215e-01 
307 1291.27 8.13001865e+00 2.43900560e-01 
306 1292.78 8.02711722e+00 2.40813517e-01 
305 1294.30 7.94338369e+00 2.38301511e-01 
304 1295.81 7.78877874e+00 2.33663362e-01 
303 1297.32 7.64696818e+00 2.29409045e-01 
302 1298.83 7.55882123e+00 2.26764637e-01 
301 1300.34 7.28262959e+00 2.18478888e-01 
300 1301.85 7.09427082e+00 2.12828125e-01 
299 1303.35 6.88041416e+00 2.06412425e-01 
298 1304.86 6.72609966e+00 2.01782990e-01 
297 1306.36 6.66777201e+00 2.00033160e-01 
296 1307.86 6.56081633e+00 1.96824490e-01 
295 1309.36 6.37913422e+00 1.91374027e-01 
294 1310.86 6.00949899e+00 1.80284970e-01 
293 1312.36 5.92962593e+00 1.77888778e-01 
292 1313.86 5.88181798e+00 1.76454539e-01 
291 1315.36 5.81084081e+00 1.74325224e-01 
290 1316.85 5.69063013e+00 1.70718904e-01 
289 1318.34 5.61835876e+00 1.68550763e-01 
288 1319.84 5.31898634e+00 1.59569590e-01 
287 1321.33 5.38268502e+00 1.61480551e-01 
286 1322.82 5.42325786e+00 1.62697736e-01 
285 1324.30 5.21864987e+00 1.56559496e-01 
284 1325.79 4.85129319e+00 1.45538796e-01 
283 1327.28 4.28070723e+00 1.28421217e-01 
282 1328.76 3.63892781e+00 1.09167834e-01 
281 1330.25 3.42461821e+00 1.02738546e-01 
280 1331.73 3.10643101e+00 9.31929303e-02 
279 1333.21 3.60019173e+00 1.08005752e-01 
278 1334.69 3.77449097e+00 1.13234729e-01 
277 1336.17 3.87165057e+00 1.16149517e-01 
276 1337.65 3.63483189e+00 1.09044957e-01 
275 1339.12 3.60734642e+00 1.08220393e-01 
274 1340.60 2.93030898e+00 8.79092693e-02 
273 1342.07 2.76190839e+00 8.28572516e-02 
272 1343.55 2.15914438e+00 6.47743314e-02 
271 1345.02 1.56745904e+00 4.70237713e-02 
270 1346.49 3.96447898e-01 1.18934369e-02 
269 1347.96 3.18439021e-01 9.55317062e-03 
268 1349.43 9.96699054e-02 2.99009716e-03 
267 1350.89 4.10438323e-02 1.23131497e-03 
266 1352.36 7.13183131e-02 2.13954939e-03 
265 1353.82 1.77795697e-02 5.33387092e-04 
264 1355.29 2.33792399e-01 7.01377197e-03 
263 1356.75 1.62263942e-02 4.86791827e-04 
262 1358.21 2.00204903e-02 6.00614708e-04 
261 1359.67 1.98346017e-01 5.95038052e-03 
260 1361.13 1.45064726e-01 4.35194178e-03 
259 1362.59 1.27462498e-01 3.82387493e-03 
258 1364.04 1.20113825e-02 3.60341476e-04 
257 1365.50 1.28670329e-02 3.86010988e-04 
256 1366.95 2.75902886e-01 8.27708659e-03 
255 1368.41 1.52744071e-01 4.58232213e-03 
254 1369.86 2.11661927e-02 6.34985782e-04 
253 1371.31 9.80179017e-03 2.94053705e-04 
252 1372.76 3.77616635e-01 1.13284990e-02 
251 1374.21 3.68773985e-02 1.10632195e-03 
250 1375.65 1.20338526e-01 3.61015577e-03 
249 1377.10 9.10623045e-02 2.73186913e-03 
248 1378.55 1.92614647e-01 5.77843941e-03 
247 1379.99 1.22369642e-02 3.67108925e-04 
246 1381.43 1.96603255e-01 5.89809764e-03 
245 1382.87 6.41459233e-03 1.92437770e-04 
244 1384.32 1.36682319e-02 4.10046958e-04 
243 1385.75 1.05933028e-02 3.17799083e-04 
242 1387.19 1.00907482e-02 3.02722445e-04 
241 1388.63 1.92559392e-01 5.77678177e-03 
240 1390.07 1.33507951e-02 4.00523854e-04 
239 1391.50 1.21275501e-02 3.63826504e-04 
238 1392.94 3.79221295e-01 1.13766388e-02 
237 1394.37 9.03800123e-03 2.71140037e-04 
236 1395.80 1.23466482e-02 3.70399446e-04 
235 1397.23 1.15673273e-02 3.47019819e-04 
234 1398.66 4.40027893e-01 1.32008368e-02 
233 1400.09 1.02559073e-02 3.07677219e-04 
232 1401.52 1.45595435e-02 4.36786304e-04 
231 1402.94 7.09187952e-03 2.12756385e-04 
230 1404.37 1.63546524e-01 4.90639573e-03 
229 1405.79 8.12404283e-03 2.43721285e-04 
228 1407.22 1.42545047e-01 4.27635142e-03 
227 1408.64 1.13280322e-02 3.39840967e-04 
226 1410.06 1.63090121e-01 4.89270364e-03 
225 1411.48 1.42959292e-02 4.28877877e-04 
224 1412.90 2.83316835e-01 8.49950505e-03 
223 1414.32 8.55920131e-02 2.56776039e-03 
222 1415.73 2.19328116e-02 6.57984348e-04 
221 1417.15 2.53970431e-02 7.61911294e-04 
220 1418.56 2.29629867e-02 6.88889600e-04 
219 1419.98 3.96334521e-02 1.18900356e-03 
218 1421.39 4.62314679e-02 1.38694404e-03 
217 1422.80 7.64580279e-02 2.29374084e-03 
216 1424.21 1.86587099e-01 5.59761297e-03 
215 1425.62 6.92549870e-02 2.07764961e-03 
214 1427.03 1.62156258e-01 4.86468775e-03 
213 1428.44 1.69666627e-01 5.08999882e-03 
212 1429.84 1.74131037e-01 5.22393110e-03 
211 1431.25 2.10580581e-01 6.31741742e-03 
210 1432.65 1.80246737e-01 5.40740212e-03 
209 1434.06 1.57271444e-01 4.71814333e-03 
208 1435.46 8.54667592e-02 2.56400278e-03 
207 1436.86 1.27944946e-01 3.83834837e-03 
206 1438.26 1.34868557e-01 4.04605670e-03 
205 1439.66 1.28579394e-01 3.85738183e-03 
204 1441.05 1.78161649e-01 5.34484948e-03 
203 1442.45 1.63957701e-01 4.91873104e-03 
202 1443.85 2.19320208e-01 6.57960625e-03 
201 1445.24 2.62264719e-01 7.86794156e-03 
200 1446.64 3.07330240e-01 9.21990721e-03 
199 1448.03 5.32678744e-01 1.59803623e-02 
198 1449.42 3.40582720e-01 1.02174816e-02 
197 1450.81 9.52965891e-01 2.85889767e-02 
196 1452.20 4.77661405e-01 1.43298422e-02 
195 1453.59 1.52769925e+00 4.58309775e-02 
194 1454.97 1.02511413e+00 3.07534239e-02 
193 1456.36 2.33771450e+00 7.01314351e-02 
192 1457.75 1.60151534e+00 4.80454601e-02 
191 1459.13 2.01657648e+00 6.04972943e-02 
190 1460.51 2.11335204e+00 6.34005612e-02 
189 1461.90 7.72821120e-01 2.31846336e-02 
188 1463.28 1.87301623e+00 5.61904868e-02 
187 1464.66 1.65802441e+00 4.97407322e-02 
186 1466.04 1.37867465e+00 4.13602394e-02 
185 1467.41 8.44284198e-01 2.53285260e-02 
184 1468.79 2.79397913e-01 8.38193740e-03 
183 1470.17 6.25642217e-01 1.87692665e-02 
182 1471.54 4.56433755e-01 1.36930126e-02 
181 1472.92 1.33540692e+00 4.00622076e-02 
180 1474.29 1.16663833e+00 3.49991498e-02 
179 1475.66 1.50712130e+00 4.52136391e-02 
178 1477.03 7.97609000e-01 2.39282700e-02 
177 1478.40 1.58131974e+00 4.74395923e-02 
176 1479.77 1.34261284e+00 4.02783851e-02 
175 1481.14 1.49042402e+00 4.47127207e-02 
174 1482.51 1.92949077e+00 5.78847231e-02 
173 1483.87 1.91323196e+00 5.73969589e-02 
172 1485.24 1.41113285e+00 4.23339856e-02 
171 1486.60 1.53201436e+00 4.59604309e-02 
170 1487.96 1.95599413e+00 5.86798238e-02 
169 1489.32 2.27501056e+00 6.82503168e-02 
168 1490.69 2.61488624e+00 7.84465871e-02 
167 1492.04 2.71984569e+00 8.15953707e-02 
166 1493.40 2.80458000e+00 8.41374000e-02 
165 1494.76 2.93879575e+00 8.81638725e-02 
164 1496.12 3.09806145e+00 9.29418435e-02 
163 1497.47 3.23861336e+00 9.71584008e-02 
162 1498.83 3.48129528e+00 1.04438858e-01 
161 1500.18 3.32124192e+00 9.96372575e-02 
160 1501.53 3.17582300e+00 9.52746901e-02 
159 1502.89 3.10674291e+00 9.32022874e-02 
158 1504.24 3.19081716e+00 9.57245148e-02 
157 1505.59 3.25291607e+00 9.75874820e-02 
156 1506.93 3.55886875e+00 1.06766063e-01 
155 1508.28 3.68825538e+00 1.10647661e-01 
154 1509.63 3.71245582e+00 1.11373675e-01 
153 1510.97 3.74646401e+00 1.12393920e-01 
152 1512.32 3.88926039e+00 1.16677812e-01 
151 1513.66 3.81871514e+00 1.14561454e-01 
150 1515.00 3.85675004e+00 1.15702501e-01 
149 1516.34 3.85683410e+00 1.15705023e-01 
148 1517.69 3.90485519e+00 1.17145656e-01 
147 1519.02 3.88448940e+00 1.16534682e-01 
146 1520.36 3.98376343e+00 1.19512903e-01 
145 1521.70 4.01779783e+00 1.20533935e-01 
144 1523.04 4.10267058e+00 1.23080117e-01 
143 1524.37 4.06934075e+00 1.22080222e-01 
142 1525.71 4.11819876e+00 1.23545963e-01 
141 1527.04 4.06096252e+00 1.21828876e-01 
140 1528.37 4.11091695e+00 1.23327509e-01 
139 1529.70 4.07277107e+00 1.22183132e-01 
138 1531.03 4.14027578e+00 1.24208273e-01 
137 1532.36 4.10366170e+00 1.23109851e-01 
136 1533.69 4.16117662e+00 1.24835299e-01 
135 1535.02 4.08289381e+00 1.22486814e-01 
134 1536.34 4.10809844e+00 1.23242953e-01 
133 1537.67 4.04756123e+00 1.21426837e-01 
132 1538.99 4.10448331e+00 1.23134499e-01 
131 1540.31 4.04796263e+00 1.21438879e-01 
130 1541.64 4.09625040e+00 1.22887512e-01 
129 1542.96 4.06629412e+00 1.21988824e-01 
128 1544.28 4.11035222e+00 1.23310567e-01 
127 1545.60 4.03847511e+00 1.21154253e-01 
126 1546.91 4.10572307e+00 1.23171692e-01 
125 1548.23 4.03998672e+00 1.21199602e-01 
124 1549.55 4.08657216e+00 1.22597165e-01 
123 1550.86 4.01219228e+00 1.20365768e-01 
122 1552.18 4.02995418e+00 1.20898625e-01 
121 1553.49 3.95547850e+00 1.18664355e-01 
120 1554.80 4.00035142e+00 1.20010543e-01 
119 1556.11 3.91527327e+00 1.17458198e-01 
118 1557.42 3.96758710e+00 1.19027613e-01 
117 1558.73 3.88676310e+00 1.16602893e-01 
116 1560.04 3.91659061e+00 1.17497718e-01 
115 1561.34 3.83022323e+00 1.14906697e-01 
114 1562.65 3.88285658e+00 1.16485697e-01 
113 1563.95 3.79543401e+00 1.13863020e-01 
112 1565.26 3.84510790e+00 1.15353237e-01 
111 1566.56 3.69087186e+00 1.10726156e-01 
110 1567.86 3.65243401e+00 1.09573020e-01 
109 1569.16 3.49183088e+00 1.04754926e-01 
108 1570.46 3.44397475e+00 1.03319243e-01 
107 1571.76 3.33641128e+00 1.00092338e-01 
106 1573.05 3.34010358e+00 1.00203107e-01 
105 1574.35 3.25697241e+00 9.77091724e-02 
104 1575.64 3.29616338e+00 9.88849015e-02 
103 1576.94 3.25471877e+00 9.76415630e-02 
102 1578.23 3.32491444e+00 9.97474331e-02 
101 1579.52 3.31716544e+00 9.95149632e-02 
100 1580.81 3.40860846e+00 1.02258254e-01 
99 1582.10 3.37456803e+00 1.01237041e-01 
98 1583.39 3.45569391e+00 1.03670817e-01 
97 1584.68 3.38614754e+00 1.01584426e-01 
96 1585.97 3.38552411e+00 1.01565723e-01 
95 1587.25 3.28855199e+00 9.86565598e-02 
94 1588.54 3.31469561e+00 9.94408684e-02 
93 1589.82 3.24079929e+00 9.72239787e-02 
92 1591.10 3.35037002e+00 1.00511101e-01 
91 1592.38 3.30196618e+00 9.90589853e-02 
90 1593.66 3.35594278e+00 1.00678283e-01 
89 1594.94 3.25662192e+00 9.76986577e-02 
88 1596.22 3.25826667e+00 9.77480002e-02 
87 1597.50 3.11866196e+00 9.35598587e-02 
86 1598.77 3.08117349e+00 9.24352048e-02 
85 1600.05 2.93943440e+00 8.81830320e-02 
84 1601.32 2.95242465e+00 8.85727394e-02 
83 1602.59 2.88101365e+00 8.64304095e-02 
82 1603.86 2.96618021e+00 8.89854064e-02 
81 1605.13 2.86149819e+00 8.58449458e-02 
80 1606.40 2.92017579e+00 8.76052737e-02 
79 1607.67 2.80522838e+00 8.41568513e-02 
78 1608.94 2.85727572e+00 8.57182716e-02 
77 1610.20 2.81775231e+00 8.45325694e-02 
76 1611.47 2.91149016e+00 8.73447047e-02 
75 1612.73 2.87856583e+00 8.63569749e-02 
74 1614.00 2.95968156e+00 8.87904468e-02 
73 1615.26 2.88818528e+00 8.66455585e-02 
72 1616.52 2.92491981e+00 8.77475943e-02 
71 1617.78 2.82752582e+00 8.48257745e-02 
70 1619.03 2.87051925e+00 8.61155774e-02 
69 1620.29 2.80744207e+00 8.42232622e-02 
68 1621.55 2.87273601e+00 8.61820802e-02 
67 1622.80 2.81993373e+00 8.45980119e-02 
66 1624.06 2.88568238e+00 8.65704715e-02 
65 1625.31 2.78414951e+00 8.35244853e-02 
64 1626.56 2.84237720e+00 8.52713159e-02 
63 1627.81 2.73410948e+00 8.20232845e-02 
62 1629.06 2.74193650e+00 8.22580951e-02 
61 1630.31 2.63461021e+00 7.90383063e-02 
60 1631.56 2.64414828e+00 7.93244485e-02 
59 1632.80 2.53995027e+00 7.61985081e-02 
58 1634.05 2.56926173e+00 7.70778518e-02 
57 1635.29 2.45959920e+00 7.37879760e-02 
56 1636.53 2.46361656e+00 7.39084969e-02 
55 1637.77 2.34535713e+00 7.03607140e-02 
54 1639.01 2.36038143e+00 7.08114430e-02 
53 1640.25 2.28127639e+00 6.84382917e-02 
52 1641.49 2.29803057e+00 6.89409172e-02 
51 1642.73 2.22884535e+00 6.68653604e-02 
