% Radiance calibration [Resp in cts/ms / W/(m^2.sr.um)] for 4STAR NIR spectrometer (512 channels) derived from 20150915_012_NIR_park.dat on 2015-11-10 16:14:06. 
% Calibration used only data with Lamps_1 and 8 ms (vis), 100 ms (nir). 
% Also requires calibrated radiance from 20140606091700HISS.txt. 
Pix  Wavelength     resp       rate        rad 
511  949.79  3.15068777e-01 2.45234161e+01 7.78351200e+01 
510  949.79  9.72044655e-02 7.56589604e+00 7.78348608e+01 
509  951.68  1.05458513e-01 8.19647805e+00 7.77222985e+01 
508  953.57  1.06285143e-01 8.24908490e+00 7.76127752e+01 
507  955.46  1.14960674e-01 8.90984322e+00 7.75034008e+01 
506  957.34  1.14912334e-01 8.89354524e+00 7.73941747e+01 
505  959.22  1.24516890e-01 9.62329989e+00 7.72850965e+01 
504  961.10  1.24358249e-01 9.59776658e+00 7.71783669e+01 
503  962.98  1.33645296e-01 1.03004885e+01 7.70733341e+01 
502  964.85  1.31670668e-01 1.01344863e+01 7.69684426e+01 
501  966.72  1.41775701e-01 1.08974038e+01 7.68636919e+01 
500  968.59  1.40529314e-01 1.07869010e+01 7.67590815e+01 
499  970.45  1.49406105e-01 1.14502284e+01 7.66382895e+01 
498  972.32  1.47948022e-01 1.13131249e+01 7.64668883e+01 
497  974.18  1.56057369e-01 1.19065086e+01 7.62957152e+01 
496  976.04  1.53996065e-01 1.17229150e+01 7.61247695e+01 
495  977.89  1.61537359e-01 1.22694167e+01 7.59540504e+01 
494  979.74  1.57682079e-01 1.19497089e+01 7.57835570e+01 
493  981.59  1.64694094e-01 1.24656686e+01 7.56898337e+01 
492  983.44  1.60809082e-01 1.21585348e+01 7.56085083e+01 
491  985.29  1.67087442e-01 1.26196617e+01 7.55272897e+01 
490  987.13  1.62993932e-01 1.22972691e+01 7.54461776e+01 
489  988.97  1.68882480e-01 1.27278571e+01 7.53651716e+01 
488  990.81  1.63957673e-01 1.23387742e+01 7.52558510e+01 
487  992.65  1.69345868e-01 1.27197015e+01 7.51107875e+01 
486  994.48  1.64893012e-01 1.23613551e+01 7.49659127e+01 
485  996.31  1.69924881e-01 1.27139879e+01 7.48212257e+01 
484  998.14  1.65391680e-01 1.23509091e+01 7.46767260e+01 
483  999.97  1.70933469e-01 1.27400839e+01 7.45324129e+01 
482  1001.79  1.66184231e-01 1.23711034e+01 7.44421013e+01 
481  1003.62  1.70724142e-01 1.26938216e+01 7.43528209e+01 
480  1005.44  1.64733354e-01 1.22337010e+01 7.42636551e+01 
479  1007.25  1.70401453e-01 1.26394602e+01 7.41746033e+01 
478  1009.07  1.63836141e-01 1.21379095e+01 7.40856653e+01 
477  1010.88  1.68680570e-01 1.24791549e+01 7.39809863e+01 
476  1012.69  1.63180183e-01 1.20524371e+01 7.38596866e+01 
475  1014.50  1.66778397e-01 1.22979956e+01 7.37385408e+01 
474  1016.31  1.62208651e-01 1.19414032e+01 7.36175484e+01 
473  1018.11  1.67481107e-01 1.23093101e+01 7.34967088e+01 
472  1019.91  1.61318367e-01 1.18369000e+01 7.33760214e+01 
471  1021.71  1.66094288e-01 1.21681694e+01 7.32606134e+01 
470  1023.51  1.60347572e-01 1.17287224e+01 7.31456194e+01 
469  1025.30  1.65001297e-01 1.20501717e+01 7.30307693e+01 
468  1027.09  1.61772594e-01 1.17958206e+01 7.29160627e+01 
467  1028.88  1.67593277e-01 1.22010418e+01 7.28014990e+01 
466  1030.67  1.63090929e-01 1.18559155e+01 7.26951257e+01 
465  1032.46  1.69156128e-01 1.22811195e+01 7.26022737e+01 
464  1034.24  1.65241807e-01 1.19816069e+01 7.25095367e+01 
463  1036.02  1.71002405e-01 1.23834665e+01 7.24169142e+01 
462  1037.80  1.67023038e-01 1.20798420e+01 7.23244058e+01 
461  1039.58  1.72933577e-01 1.24913401e+01 7.22320112e+01 
460  1041.35  1.69535366e-01 1.22242788e+01 7.21045947e+01 
459  1043.12  1.75417043e-01 1.26241229e+01 7.19663421e+01 
458  1044.89  1.72875507e-01 1.24173466e+01 7.18282582e+01 
457  1046.66  1.79518908e-01 1.28697720e+01 7.16903425e+01 
456  1048.43  1.76717201e-01 1.26445742e+01 7.15525945e+01 
455  1050.19  1.83808094e-01 1.31270460e+01 7.14171269e+01 
454  1051.95  1.79212926e-01 1.27777187e+01 7.12990912e+01 
453  1053.71  1.87462213e-01 1.33437849e+01 7.11811980e+01 
452  1055.47  1.83012612e-01 1.30055070e+01 7.10634468e+01 
451  1057.23  1.89118102e-01 1.34171421e+01 7.09458370e+01 
450  1058.98  1.85908899e-01 1.31676240e+01 7.08283682e+01 
449  1060.73  1.90551000e-01 1.34691858e+01 7.06854636e+01 
448  1062.48  1.85631429e-01 1.30883258e+01 7.05070574e+01 
447  1064.23  1.91097136e-01 1.34396444e+01 7.03288635e+01 
446  1065.97  1.86032247e-01 1.30503260e+01 7.01508812e+01 
445  1067.71  1.89383815e-01 1.32517745e+01 6.99731097e+01 
444  1069.46  1.84433797e-01 1.28726580e+01 6.97955483e+01 
443  1071.19  1.87702029e-01 1.30726320e+01 6.96456619e+01 
442  1072.93  1.82416440e-01 1.26794863e+01 6.95084626e+01 
441  1074.67  1.86447145e-01 1.29341040e+01 6.93714243e+01 
440  1076.40  1.81833496e-01 1.25891596e+01 6.92345465e+01 
439  1078.13  1.85193984e-01 1.27965022e+01 6.90978286e+01 
438  1079.86  1.80518614e-01 1.24487929e+01 6.89612700e+01 
437  1081.58  1.84161484e-01 1.26693480e+01 6.87947757e+01 
436  1083.31  1.81835227e-01 1.24785819e+01 6.86257671e+01 
435  1085.03  1.87876162e-01 1.28614298e+01 6.84569540e+01 
434  1086.75  1.83991688e-01 1.25644862e+01 6.82883359e+01 
433  1088.47  1.90611778e-01 1.29844575e+01 6.81199119e+01 
432  1090.19  1.88512003e-01 1.28094961e+01 6.79505599e+01 
431  1091.90  1.94867202e-01 1.32065857e+01 6.77722343e+01 
430  1093.61  1.92756171e-01 1.30291823e+01 6.75941125e+01 
429  1095.33  1.99147708e-01 1.34257805e+01 6.74161940e+01 
428  1097.03  1.97766302e-01 1.32975051e+01 6.72384779e+01 
427  1098.74  2.05886365e-01 1.38069380e+01 6.70609637e+01 
426  1100.45  2.03991957e-01 1.36407266e+01 6.68689434e+01 
425  1102.15  2.11814236e-01 1.41143753e+01 6.66356312e+01 
424  1103.85  2.11346405e-01 1.40339470e+01 6.64025821e+01 
423  1105.55  2.19269188e-01 1.45089972e+01 6.61697951e+01 
422  1107.25  2.17071236e-01 1.43130845e+01 6.59372692e+01 
421  1108.94  2.25752437e-01 1.48330647e+01 6.57050036e+01 
420  1110.64  2.22166912e-01 1.45315426e+01 6.54082216e+01 
419  1112.33  2.29869436e-01 1.49424171e+01 6.50039316e+01 
418  1114.02  2.25968387e-01 1.45975783e+01 6.46000908e+01 
417  1115.70  2.32557110e-01 1.49293985e+01 6.41966976e+01 
416  1117.39  2.28974829e-01 1.46071632e+01 6.37937506e+01 
415  1119.07  2.33126151e-01 1.47781577e+01 6.33912481e+01 
414  1120.76  2.30363431e-01 1.45241735e+01 6.30489547e+01 
413  1122.44  2.38120699e-01 1.49492387e+01 6.27800891e+01 
412  1124.12  2.34269887e-01 1.46445662e+01 6.25115180e+01 
411  1125.79  2.42056306e-01 1.50663688e+01 6.22432403e+01 
410  1127.47  2.40491749e-01 1.49045375e+01 6.19752550e+01 
409  1129.14  2.47573981e-01 1.52771866e+01 6.17075612e+01 
408  1130.81  2.42376847e-01 1.49005229e+01 6.14766759e+01 
407  1132.48  2.44494908e-01 1.49837941e+01 6.12846877e+01 
406  1134.15  2.38801991e-01 1.45891078e+01 6.10929067e+01 
405  1135.81  2.44908961e-01 1.49152820e+01 6.09013323e+01 
404  1137.48  2.46247486e-01 1.49496760e+01 6.07099637e+01 
403  1139.14  2.52087025e-01 1.52560043e+01 6.05188002e+01 
402  1140.80  2.45540428e-01 1.48058402e+01 6.02989914e+01 
401  1142.46  2.48477153e-01 1.49206856e+01 6.00485213e+01 
400  1144.12  2.41778958e-01 1.44579750e+01 5.97983177e+01 
399  1145.77  2.47244500e-01 1.47230094e+01 5.95483797e+01 
398  1147.43  2.42656625e-01 1.43892240e+01 5.92987063e+01 
397  1149.08  2.46721334e-01 1.45687213e+01 5.90492967e+01 
396  1150.73  2.41568576e-01 1.42076075e+01 5.88139721e+01 
395  1152.38  2.47418797e-01 1.44978517e+01 5.85964039e+01 
394  1154.02  2.41838666e-01 1.41183149e+01 5.83790639e+01 
393  1155.67  2.49121428e-01 1.44893884e+01 5.81619513e+01 
392  1157.31  2.44293997e-01 1.41556316e+01 5.79450652e+01 
391  1158.95  2.49759883e-01 1.44182397e+01 5.77284050e+01 
390  1160.59  2.44963094e-01 1.40897582e+01 5.75178812e+01 
389  1162.23  2.48962380e-01 1.42700381e+01 5.73180499e+01 
388  1163.87  2.42865519e-01 1.38720959e+01 5.71184251e+01 
387  1165.50  2.47047395e-01 1.40616922e+01 5.69190062e+01 
386  1167.13  2.41205551e-01 1.36811288e+01 5.67197924e+01 
385  1168.76  2.43968366e-01 1.37892831e+01 5.65207831e+01 
384  1170.39  2.39495601e-01 1.34842465e+01 5.63026897e+01 
383  1172.02  2.41638785e-01 1.35376488e+01 5.60243205e+01 
382  1173.65  2.37425302e-01 1.32355667e+01 5.57462349e+01 
381  1175.27  2.39954634e-01 1.33099073e+01 5.54684319e+01 
380  1176.90  2.35114930e-01 1.29762071e+01 5.51909106e+01 
379  1178.52  2.37312273e-01 1.30316879e+01 5.49136700e+01 
378  1180.14  2.31954278e-01 1.26733132e+01 5.46371178e+01 
377  1181.75  2.33573452e-01 1.26982884e+01 5.43652898e+01 
376  1183.37  2.27105392e-01 1.22849788e+01 5.40937348e+01 
375  1184.99  2.28635627e-01 1.23057300e+01 5.38224518e+01 
374  1186.60  2.23808396e-01 1.19852619e+01 5.35514399e+01 
373  1188.21  2.24298963e-01 1.19508054e+01 5.32806983e+01 
372  1189.82  2.18832929e-01 1.16003830e+01 5.30102259e+01 
371  1191.43  2.25650993e-01 1.19056732e+01 5.27614485e+01 
370  1193.04  2.21156232e-01 1.16141552e+01 5.25156134e+01 
369  1194.64  2.24243098e-01 1.17211914e+01 5.22700210e+01 
368  1196.24  2.21078197e-01 1.15015204e+01 5.20246706e+01 
367  1197.85  2.24775077e-01 1.16387549e+01 5.17795614e+01 
366  1199.45  2.23048141e-01 1.14947173e+01 5.15346924e+01 
365  1201.05  2.27850713e-01 1.17050556e+01 5.13715995e+01 
364  1202.64  2.22844101e-01 1.14211613e+01 5.12518001e+01 
363  1204.24  2.26365531e-01 1.15745489e+01 5.11321173e+01 
362  1205.83  2.23554988e-01 1.14041102e+01 5.10125508e+01 
361  1207.43  2.26982763e-01 1.15518565e+01 5.08931001e+01 
360  1209.02  2.23853808e-01 1.13659006e+01 5.07737649e+01 
359  1210.61  2.26867959e-01 1.15000055e+01 5.06903029e+01 
358  1212.19  2.23654591e-01 1.13314361e+01 5.06648937e+01 
357  1213.78  2.30617966e-01 1.16783806e+01 5.06395089e+01 
356  1215.37  2.27623850e-01 1.15209873e+01 5.06141484e+01 
355  1216.95  2.30434726e-01 1.16574191e+01 5.05888122e+01 
354  1218.53  2.28885185e-01 1.15732361e+01 5.05635001e+01 
353  1220.11  2.33242599e-01 1.17872469e+01 5.05364241e+01 
352  1221.69  2.30213605e-01 1.16225401e+01 5.04858960e+01 
351  1223.27  2.34874564e-01 1.18459963e+01 5.04354157e+01 
350  1224.84  2.33975267e-01 1.17888399e+01 5.03849830e+01 
349  1226.42  2.36865063e-01 1.19225077e+01 5.03345979e+01 
348  1227.99  2.35584789e-01 1.18462068e+01 5.02842601e+01 
347  1229.56  2.40158576e-01 1.20641186e+01 5.02339695e+01 
346  1231.13  2.37189117e-01 1.18957742e+01 5.01531197e+01 
345  1232.70  2.40106697e-01 1.20198780e+01 5.00605696e+01 
344  1234.27  2.37823904e-01 1.18836100e+01 4.99681057e+01 
343  1235.84  2.40515131e-01 1.19958672e+01 4.98757276e+01 
342  1237.40  2.38064642e-01 1.18516757e+01 4.97834352e+01 
341  1238.96  2.42448120e-01 1.20475448e+01 4.96912281e+01 
340  1240.52  2.37555031e-01 1.17833879e+01 4.96027715e+01 
339  1242.08  2.42933882e-01 1.20304876e+01 4.95216539e+01 
338  1243.64  2.41833914e-01 1.19564164e+01 4.94406108e+01 
337  1245.20  2.43392846e-01 1.20137837e+01 4.93596420e+01 
336  1246.75  2.41890973e-01 1.19200841e+01 4.92787472e+01 
335  1248.31  2.45034614e-01 1.20551948e+01 4.91979262e+01 
334  1249.86  2.43427321e-01 1.19564632e+01 4.91171787e+01 
333  1251.41  2.46980014e-01 1.21051023e+01 4.90124772e+01 
332  1252.96  2.45641032e-01 1.20132038e+01 4.89055258e+01 
331  1254.51  2.48124764e-01 1.21081587e+01 4.87986711e+01 
330  1256.06  2.45880146e-01 1.19723746e+01 4.86919127e+01 
329  1257.61  2.49274627e-01 1.21110702e+01 4.85852504e+01 
328  1259.15  2.48865104e-01 1.20646527e+01 4.84786839e+01 
327  1260.69  2.52347846e-01 1.22067985e+01 4.83729055e+01 
326  1262.23  2.49796371e-01 1.20571891e+01 4.82680713e+01 
325  1263.77  2.52548298e-01 1.21635672e+01 4.81633306e+01 
324  1265.31  2.50725908e-01 1.20495570e+01 4.80586832e+01 
323  1266.85  2.52943914e-01 1.21297050e+01 4.79541287e+01 
322  1268.39  2.51621566e-01 1.20400081e+01 4.78496668e+01 
321  1269.92  2.53866477e-01 1.21209304e+01 4.77452973e+01 
320  1271.46  2.51173568e-01 1.19639713e+01 4.76322864e+01 
319  1272.99  2.53668367e-01 1.20540438e+01 4.75189080e+01 
318  1274.52  2.51771394e-01 1.19353813e+01 4.74056291e+01 
317  1276.05  2.55218217e-01 1.20698947e+01 4.72924496e+01 
316  1277.58  2.51915161e-01 1.18851983e+01 4.71793691e+01 
315  1279.10  2.54996500e-01 1.20017640e+01 4.70663873e+01 
314  1280.63  2.53448010e-01 1.18999536e+01 4.69522472e+01 
313  1282.15  2.55101468e-01 1.19480379e+01 4.68364137e+01 
312  1283.68  2.53088830e-01 1.18244824e+01 4.67206806e+01 
311  1285.20  2.54670115e-01 1.18689129e+01 4.66050478e+01 
310  1286.72  2.51875653e-01 1.17095769e+01 4.64895148e+01 
309  1288.24  2.53512665e-01 1.17564170e+01 4.63740813e+01 
308  1289.75  2.50663587e-01 1.15953835e+01 4.62587472e+01 
307  1291.27  2.51936984e-01 1.16188602e+01 4.61181206e+01 
306  1292.78  2.50845996e-01 1.15320640e+01 4.59726852e+01 
305  1294.30  2.53856984e-01 1.16335989e+01 4.58273741e+01 
304  1295.81  2.50531890e-01 1.14448446e+01 4.56821869e+01 
303  1297.32  2.52629307e-01 1.15040119e+01 4.55371234e+01 
302  1298.83  2.50453794e-01 1.13686445e+01 4.53921832e+01 
301  1300.34  2.51710757e-01 1.13872807e+01 4.52395473e+01 
300  1301.85  2.50868964e-01 1.13042022e+01 4.50601861e+01 
299  1303.35  2.50243532e-01 1.12311741e+01 4.48809765e+01 
298  1304.86  2.48601420e-01 1.11129603e+01 4.47019179e+01 
297  1306.36  2.49385562e-01 1.11033958e+01 4.45230099e+01 
296  1307.86  2.46888708e-01 1.09480951e+01 4.43442522e+01 
295  1309.36  2.49725714e-01 1.10292971e+01 4.41656443e+01 
294  1310.86  2.47869066e-01 1.08985654e+01 4.39690422e+01 
293  1312.36  2.47995441e-01 1.08520986e+01 4.37592663e+01 
292  1313.86  2.46163580e-01 1.07203415e+01 4.35496652e+01 
291  1315.36  2.48376686e-01 1.07647048e+01 4.33402385e+01 
290  1316.85  2.45458693e-01 1.05868754e+01 4.31309856e+01 
289  1318.34  2.46447901e-01 1.05780137e+01 4.29219061e+01 
288  1319.84  2.44822054e-01 1.04570843e+01 4.27129996e+01 
287  1321.33  2.44847284e-01 1.04031560e+01 4.24883454e+01 
286  1322.82  2.41479392e-01 1.02053795e+01 4.22619065e+01 
285  1324.30  2.42609073e-01 1.01982310e+01 4.20356539e+01 
284  1325.79  2.41115369e-01 1.00809340e+01 4.18095870e+01 
283  1327.28  2.42158544e-01 1.00698496e+01 4.15837055e+01 
282  1328.76  2.39301574e-01 9.89703655e+00 4.13580086e+01 
281  1330.25  2.40105221e-01 9.87233555e+00 4.11167051e+01 
280  1331.73  2.36914140e-01 9.66526800e+00 4.07965012e+01 
279  1333.21  2.38722166e-01 9.66265155e+00 4.04765579e+01 
278  1334.69  2.37393669e-01 9.53298775e+00 4.01568744e+01 
277  1336.17  2.37671072e-01 9.46820951e+00 3.98374503e+01 
276  1337.65  2.35532830e-01 9.30785344e+00 3.95182847e+01 
275  1339.12  2.34807989e-01 9.20432687e+00 3.91993770e+01 
274  1340.60  2.34258873e-01 9.08810645e+00 3.87951429e+01 
273  1342.07  2.35522262e-01 9.01248564e+00 3.82659608e+01 
272  1343.55  2.33299698e-01 8.80407836e+00 3.77372042e+01 
271  1345.02  2.29839638e-01 8.55207370e+00 3.72088721e+01 
270  1346.49  2.26185784e-01 8.29671246e+00 3.66809635e+01 
269  1347.96  2.25603207e-01 8.15634040e+00 3.61534772e+01 
268  1349.43  2.17730394e-01 7.75695283e+00 3.56264124e+01 
267  1350.89  2.16279778e-01 7.57709366e+00 3.50337592e+01 
266  1352.36  2.06660294e-01 7.10892077e+00 3.43990645e+01 
265  1353.82  2.01664672e-01 6.80918233e+00 3.37648744e+01 
264  1355.29  1.96987317e-01 6.52642381e+00 3.31311879e+01 
263  1356.75  1.97831216e-01 6.42911958e+00 3.24980036e+01 
262  1358.21  1.88313147e-01 6.00065880e+00 3.18653206e+01 
261  1359.67  1.86912394e-01 5.83786050e+00 3.12331375e+01 
260  1361.13  1.81266817e-01 5.59979428e+00 3.08925504e+01 
259  1362.59  1.80363397e-01 5.52587493e+00 3.06374520e+01 
258  1364.04  1.85919621e-01 5.64871300e+00 3.03825543e+01 
257  1365.50  1.83666681e-01 5.53348348e+00 3.01278569e+01 
256  1366.95  1.83721021e-01 5.48836407e+00 2.98733594e+01 
255  1368.41  1.83863476e-01 5.44586354e+00 2.96190612e+01 
254  1369.86  1.81433030e-01 5.32777402e+00 2.93649620e+01 
253  1371.31  1.81650059e-01 5.29230350e+00 2.91346093e+01 
252  1372.76  1.77959587e-01 5.14427811e+00 2.89070019e+01 
251  1374.21  1.75798390e-01 5.04182256e+00 2.86795718e+01 
250  1375.65  1.64991858e-01 4.69440095e+00 2.84523188e+01 
249  1377.10  1.51894364e-01 4.28725523e+00 2.82252424e+01 
248  1378.55  1.37995113e-01 3.86363439e+00 2.79983422e+01 
247  1379.99  1.26409937e-01 3.51060847e+00 2.77716179e+01 
246  1381.43  1.18847261e-01 3.25782090e+00 2.74118299e+01 
245  1382.87  1.22894477e-01 3.32446305e+00 2.70513625e+01 
244  1384.32  1.26563554e-01 3.37812978e+00 2.66911735e+01 
243  1385.75  1.33865246e-01 3.52484090e+00 2.63312623e+01 
242  1387.19  1.38674368e-01 3.60159916e+00 2.59716285e+01 
241  1388.63  1.42179810e-01 3.64154790e+00 2.56122715e+01 
240  1390.07  1.45092012e-01 3.66355822e+00 2.52498961e+01 
239  1391.50  1.48838196e-01 3.69427793e+00 2.48207653e+01 
238  1392.94  1.42218300e-01 3.46898360e+00 2.43919636e+01 
237  1394.37  1.45279004e-01 3.48139203e+00 2.39634905e+01 
236  1395.80  1.50830616e-01 3.54985062e+00 2.35353453e+01 
235  1397.23  1.51328701e-01 3.49683212e+00 2.31075275e+01 
234  1398.66  1.53719456e-01 3.48636287e+00 2.26800365e+01 
233  1400.09  1.59564389e-01 3.55128704e+00 2.22561379e+01 
232  1401.52  1.58906601e-01 3.47698618e+00 2.18806907e+01 
231  1402.94  1.64683359e-01 3.54160282e+00 2.15055294e+01 
230  1404.37  1.66612122e-01 3.52062302e+00 2.11306535e+01 
229  1405.79  1.64721943e-01 3.41897894e+00 2.07560625e+01 
228  1407.22  1.65529502e-01 3.37378192e+00 2.03817560e+01 
227  1408.64  1.69662812e-01 3.39456832e+00 2.00077335e+01 
226  1410.06  1.73645494e-01 3.41026348e+00 1.96392282e+01 
225  1411.48  1.72017327e-01 3.33505318e+00 1.93878910e+01 
224  1412.90  1.74818055e-01 3.34544834e+00 1.91367439e+01 
223  1414.32  1.77049984e-01 3.34372824e+00 1.88857868e+01 
222  1415.73  1.77788370e-01 3.31308969e+00 1.86350192e+01 
221  1417.15  1.83287976e-01 3.36964699e+00 1.83844410e+01 
220  1418.56  1.82694115e-01 3.31298455e+00 1.81340518e+01 
219  1419.98  1.83995961e-01 3.29055642e+00 1.78838514e+01 
218  1421.39  1.87266860e-01 3.31681833e+00 1.77117207e+01 
217  1422.80  1.87963909e-01 3.29706313e+00 1.75409373e+01 
216  1424.21  1.88352628e-01 3.27173831e+00 1.73702823e+01 
215  1425.62  1.90849685e-01 3.28256794e+00 1.71997556e+01 
214  1427.03  1.89399235e-01 3.22534720e+00 1.70293570e+01 
213  1428.44  1.89390554e-01 3.19295170e+00 1.68590864e+01 
212  1429.84  1.88530219e-01 3.14637018e+00 1.66889435e+01 
211  1431.25  1.87755339e-01 3.11487878e+00 1.65900943e+01 
210  1432.65  1.87099354e-01 3.08718355e+00 1.65002363e+01 
209  1434.06  1.88615328e-01 3.09526158e+00 1.64104456e+01 
208  1435.46  1.88192426e-01 3.07143630e+00 1.63207222e+01 
207  1436.86  1.89624580e-01 3.07780905e+00 1.62310659e+01 
206  1438.26  1.90134322e-01 3.06904873e+00 1.61414767e+01 
205  1439.66  1.90988154e-01 3.06573314e+00 1.60519544e+01 
204  1441.05  1.90482730e-01 3.04339305e+00 1.59772650e+01 
203  1442.45  1.89506326e-01 3.01455866e+00 1.59074302e+01 
202  1443.85  1.90503278e-01 3.01712379e+00 1.58376477e+01 
201  1445.24  1.89627442e-01 2.99002980e+00 1.57679172e+01 
200  1446.64  1.90706138e-01 2.99375049e+00 1.56982388e+01 
199  1448.03  1.89153105e-01 2.95620056e+00 1.56286124e+01 
198  1449.42  1.91601298e-01 2.98113187e+00 1.55590379e+01 
197  1450.81  1.93659025e-01 3.00329095e+00 1.55081383e+01 
196  1452.20  1.94065484e-01 3.00231415e+00 1.54706241e+01 
195  1453.59  1.93304074e-01 2.98328843e+00 1.54331379e+01 
194  1454.97  1.96440015e-01 3.02432754e+00 1.53956796e+01 
193  1456.36  1.93447203e-01 2.97101036e+00 1.53582493e+01 
192  1457.75  1.94246844e-01 2.97602613e+00 1.53208468e+01 
191  1459.13  1.93938893e-01 2.96405968e+00 1.52834722e+01 
190  1460.51  1.92242492e-01 2.93302769e+00 1.52569168e+01 
189  1461.90  1.90172409e-01 2.89986750e+00 1.52486237e+01 
188  1463.28  1.92665630e-01 2.93628908e+00 1.52403368e+01 
187  1464.66  1.91002485e-01 2.90936055e+00 1.52320560e+01 
186  1466.04  1.92875076e-01 2.93628800e+00 1.52237814e+01 
185  1467.41  1.93035172e-01 2.93712917e+00 1.52155130e+01 
184  1468.79  1.91620032e-01 2.91401389e+00 1.52072508e+01 
