% C0 (TOA Count Rate, /ms) for 4STAR NIR spectrometer (512 channels) derived from 20151118starsun.mat and recorded on 2015-11-22 16:40:41.
% Data outside 3.0x the STD of 500 nm Langley residuals were screened out.
Pix Wavelength C0 C0err
511 949.79 5.75912182e+00 -1.00000000e+00 
510 949.79 5.90531601e+00 -1.00000000e+00 
509 951.68 6.30208348e+00 -1.00000000e+00 
508 953.57 6.33106699e+00 -1.00000000e+00 
507 955.46 6.81690322e+00 -1.00000000e+00 
506 957.34 6.87557037e+00 -1.00000000e+00 
505 959.22 7.33012210e+00 -1.00000000e+00 
504 961.10 7.36864872e+00 -1.00000000e+00 
503 962.98 7.79340174e+00 -1.00000000e+00 
502 964.85 7.74203869e+00 -1.00000000e+00 
501 966.72 8.20757336e+00 -1.00000000e+00 
500 968.59 8.19582010e+00 -1.00000000e+00 
499 970.45 8.60086619e+00 -1.00000000e+00 
498 972.32 8.56407030e+00 -1.00000000e+00 
497 974.18 8.90853421e+00 -1.00000000e+00 
496 976.04 8.81298522e+00 -1.00000000e+00 
495 977.89 9.13077560e+00 -1.00000000e+00 
494 979.74 9.00468042e+00 -1.00000000e+00 
493 981.59 9.26005547e+00 -1.00000000e+00 
492 983.44 9.10592172e+00 -1.00000000e+00 
491 985.29 9.34413528e+00 -1.00000000e+00 
490 987.13 9.10889099e+00 -1.00000000e+00 
489 988.97 9.35044416e+00 -1.00000000e+00 
488 990.81 9.13787460e+00 -1.00000000e+00 
487 992.65 9.32501449e+00 -1.00000000e+00 
486 994.48 9.13359864e+00 -1.00000000e+00 
485 996.31 9.28365288e+00 -1.00000000e+00 
484 998.14 9.01848441e+00 -1.00000000e+00 
483 999.97 9.18402274e+00 -1.00000000e+00 
482 1001.79 8.90203299e+00 -1.00000000e+00 
481 1003.62 8.98676583e+00 -1.00000000e+00 
480 1005.44 8.77040742e+00 -1.00000000e+00 
479 1007.25 9.03119989e+00 -1.00000000e+00 
478 1009.07 8.84172147e+00 -1.00000000e+00 
477 1010.88 9.00165249e+00 -1.00000000e+00 
476 1012.69 8.75938409e+00 -1.00000000e+00 
475 1014.50 8.88581059e+00 -1.00000000e+00 
474 1016.31 8.67644190e+00 -1.00000000e+00 
473 1018.11 8.83675899e+00 -1.00000000e+00 
472 1019.91 8.59053806e+00 -1.00000000e+00 
471 1021.71 8.74001001e+00 -1.00000000e+00 
470 1023.51 8.50171984e+00 -1.00000000e+00 
469 1025.30 8.68077607e+00 -1.00000000e+00 
468 1027.09 8.56436506e+00 -1.00000000e+00 
467 1028.88 8.74213655e+00 -1.00000000e+00 
466 1030.67 8.57948760e+00 -1.00000000e+00 
465 1032.46 8.74352545e+00 -1.00000000e+00 
464 1034.24 8.58954644e+00 -1.00000000e+00 
463 1036.02 8.76708231e+00 -1.00000000e+00 
462 1037.80 8.65180211e+00 -1.00000000e+00 
461 1039.58 8.88108474e+00 -1.00000000e+00 
460 1041.35 8.73982389e+00 -1.00000000e+00 
459 1043.12 8.92711950e+00 -1.00000000e+00 
458 1044.89 8.83960461e+00 -1.00000000e+00 
457 1046.66 9.07358517e+00 -1.00000000e+00 
456 1048.43 9.00311756e+00 -1.00000000e+00 
455 1050.19 9.23150513e+00 -1.00000000e+00 
454 1051.95 9.08612053e+00 -1.00000000e+00 
453 1053.71 9.34372729e+00 -1.00000000e+00 
452 1055.47 9.15095086e+00 -1.00000000e+00 
451 1057.23 9.29930589e+00 -1.00000000e+00 
450 1058.98 9.15466402e+00 -1.00000000e+00 
449 1060.73 9.34907687e+00 -1.00000000e+00 
448 1062.48 9.13516438e+00 -1.00000000e+00 
447 1064.23 9.29932022e+00 -1.00000000e+00 
446 1065.97 9.00674766e+00 -1.00000000e+00 
445 1067.71 9.04083793e+00 -1.00000000e+00 
444 1069.46 8.80294371e+00 -1.00000000e+00 
443 1071.19 8.92534548e+00 -1.00000000e+00 
442 1072.93 8.75149199e+00 -1.00000000e+00 
441 1074.67 8.85790091e+00 -1.00000000e+00 
440 1076.40 8.66772720e+00 -1.00000000e+00 
439 1078.13 8.75022220e+00 -1.00000000e+00 
438 1079.86 8.52516170e+00 -1.00000000e+00 
437 1081.58 8.62279947e+00 -1.00000000e+00 
436 1083.31 8.49866855e+00 -1.00000000e+00 
435 1085.03 8.67704533e+00 -1.00000000e+00 
434 1086.75 8.59716222e+00 -1.00000000e+00 
433 1088.47 8.73114170e+00 -1.00000000e+00 
432 1090.19 8.63502735e+00 -1.00000000e+00 
431 1091.90 8.76586773e+00 -1.00000000e+00 
430 1093.61 8.60149307e+00 -1.00000000e+00 
429 1095.33 8.82095988e+00 -1.00000000e+00 
428 1097.03 8.90863011e+00 -1.00000000e+00 
427 1098.74 9.17431963e+00 -1.00000000e+00 
426 1100.45 9.20608018e+00 -1.00000000e+00 
425 1102.15 9.52796174e+00 -1.00000000e+00 
424 1103.85 9.51806336e+00 -1.00000000e+00 
423 1105.55 9.82585995e+00 -1.00000000e+00 
422 1107.25 9.79908962e+00 -1.00000000e+00 
421 1108.94 1.00523912e+01 -1.00000000e+00 
420 1110.64 9.99767807e+00 -1.00000000e+00 
419 1112.33 1.02332183e+01 -1.00000000e+00 
418 1114.02 1.01269272e+01 -1.00000000e+00 
417 1115.70 1.03032713e+01 -1.00000000e+00 
416 1117.39 1.01614868e+01 -1.00000000e+00 
415 1119.07 1.02455301e+01 -1.00000000e+00 
414 1120.76 1.01515801e+01 -1.00000000e+00 
413 1122.44 1.03303434e+01 -1.00000000e+00 
412 1124.12 1.02460356e+01 -1.00000000e+00 
411 1125.79 1.04039519e+01 -1.00000000e+00 
410 1127.47 1.03373120e+01 -1.00000000e+00 
409 1129.14 1.04975842e+01 -1.00000000e+00 
408 1130.81 1.03400902e+01 -1.00000000e+00 
407 1132.48 1.04147657e+01 -1.00000000e+00 
406 1134.15 1.02425378e+01 -1.00000000e+00 
405 1135.81 1.03010822e+01 -1.00000000e+00 
404 1137.48 1.02843737e+01 -1.00000000e+00 
403 1139.14 1.04134428e+01 -1.00000000e+00 
402 1140.80 1.02233473e+01 -1.00000000e+00 
401 1142.46 1.03280333e+01 -1.00000000e+00 
400 1144.12 1.01685364e+01 -1.00000000e+00 
399 1145.77 1.02522948e+01 -1.00000000e+00 
398 1147.43 1.01502603e+01 -1.00000000e+00 
397 1149.08 1.02092173e+01 -1.00000000e+00 
396 1150.73 1.01253745e+01 -1.00000000e+00 
395 1152.38 1.02973108e+01 -1.00000000e+00 
394 1154.02 1.01505008e+01 -1.00000000e+00 
393 1155.67 1.02941691e+01 -1.00000000e+00 
392 1157.31 1.00458655e+01 -1.00000000e+00 
391 1158.95 1.00582238e+01 -1.00000000e+00 
390 1160.59 9.85813499e+00 -1.00000000e+00 
389 1162.23 9.96173141e+00 -1.00000000e+00 
388 1163.87 9.80287500e+00 -1.00000000e+00 
387 1165.50 9.85892028e+00 -1.00000000e+00 
386 1167.13 9.71306707e+00 -1.00000000e+00 
385 1168.76 9.81617324e+00 -1.00000000e+00 
384 1170.39 9.68752586e+00 -1.00000000e+00 
383 1172.02 9.70214477e+00 -1.00000000e+00 
382 1173.65 9.52827898e+00 -1.00000000e+00 
381 1175.27 9.55291267e+00 -1.00000000e+00 
380 1176.90 9.40243285e+00 -1.00000000e+00 
379 1178.52 9.41224896e+00 -1.00000000e+00 
378 1180.14 9.14061194e+00 -1.00000000e+00 
377 1181.75 9.10757997e+00 -1.00000000e+00 
376 1183.37 8.85908517e+00 -1.00000000e+00 
375 1184.99 8.87597968e+00 -1.00000000e+00 
374 1186.60 8.72576440e+00 -1.00000000e+00 
373 1188.21 8.69957295e+00 -1.00000000e+00 
372 1189.82 8.55986541e+00 -1.00000000e+00 
371 1191.43 8.71933622e+00 -1.00000000e+00 
370 1193.04 8.61625355e+00 -1.00000000e+00 
369 1194.64 8.63314047e+00 -1.00000000e+00 
368 1196.24 8.46260862e+00 -1.00000000e+00 
367 1197.85 8.54542222e+00 -1.00000000e+00 
366 1199.45 8.46912809e+00 -1.00000000e+00 
365 1201.05 8.56035351e+00 -1.00000000e+00 
364 1202.64 8.45631504e+00 -1.00000000e+00 
363 1204.24 8.49118367e+00 -1.00000000e+00 
362 1205.83 8.37077892e+00 -1.00000000e+00 
361 1207.43 8.37081709e+00 -1.00000000e+00 
360 1209.02 8.32209774e+00 -1.00000000e+00 
359 1210.61 8.44641750e+00 -1.00000000e+00 
358 1212.19 8.42535089e+00 -1.00000000e+00 
357 1213.78 8.56280589e+00 -1.00000000e+00 
356 1215.37 8.46741641e+00 -1.00000000e+00 
355 1216.95 8.52374747e+00 -1.00000000e+00 
354 1218.53 8.48662087e+00 -1.00000000e+00 
353 1220.11 8.59449171e+00 -1.00000000e+00 
352 1221.69 8.56885908e+00 -1.00000000e+00 
351 1223.27 8.63122300e+00 -1.00000000e+00 
350 1224.84 8.58268890e+00 -1.00000000e+00 
349 1226.42 8.63057522e+00 -1.00000000e+00 
348 1227.99 8.59861946e+00 -1.00000000e+00 
347 1229.56 8.73748224e+00 -1.00000000e+00 
346 1231.13 8.66989748e+00 -1.00000000e+00 
345 1232.70 8.73004951e+00 -1.00000000e+00 
344 1234.27 8.67692322e+00 -1.00000000e+00 
343 1235.84 8.70124616e+00 -1.00000000e+00 
342 1237.40 8.62114404e+00 -1.00000000e+00 
341 1238.96 8.63289839e+00 -1.00000000e+00 
340 1240.52 8.48732427e+00 -1.00000000e+00 
339 1242.08 8.60183556e+00 -1.00000000e+00 
338 1243.64 8.56794159e+00 -1.00000000e+00 
337 1245.20 8.64110702e+00 -1.00000000e+00 
336 1246.75 8.62027757e+00 -1.00000000e+00 
335 1248.31 8.67779961e+00 -1.00000000e+00 
334 1249.86 8.62452671e+00 -1.00000000e+00 
333 1251.41 8.67213355e+00 -1.00000000e+00 
332 1252.96 8.59802047e+00 -1.00000000e+00 
331 1254.51 8.63287436e+00 -1.00000000e+00 
330 1256.06 8.55023018e+00 -1.00000000e+00 
329 1257.61 8.51218547e+00 -1.00000000e+00 
328 1259.15 8.37734075e+00 -1.00000000e+00 
327 1260.69 8.33071184e+00 -1.00000000e+00 
326 1262.23 8.20145709e+00 -1.00000000e+00 
325 1263.77 8.15945991e+00 -1.00000000e+00 
324 1265.31 7.98408689e+00 -1.00000000e+00 
323 1266.85 8.02915143e+00 -1.00000000e+00 
322 1268.39 8.07438176e+00 -1.00000000e+00 
321 1269.92 8.20605612e+00 -1.00000000e+00 
320 1271.46 8.36344983e+00 -1.00000000e+00 
319 1272.99 8.41868620e+00 -1.00000000e+00 
318 1274.52 8.40086110e+00 -1.00000000e+00 
317 1276.05 8.45636362e+00 -1.00000000e+00 
316 1277.58 8.30000511e+00 -1.00000000e+00 
315 1279.10 8.14681090e+00 -1.00000000e+00 
314 1280.63 8.09607277e+00 -1.00000000e+00 
313 1282.15 8.09056996e+00 -1.00000000e+00 
312 1283.68 8.18796975e+00 -1.00000000e+00 
311 1285.20 8.38729902e+00 -1.00000000e+00 
310 1286.72 8.32533298e+00 -1.00000000e+00 
309 1288.24 8.33358873e+00 -1.00000000e+00 
308 1289.75 8.20604388e+00 -1.00000000e+00 
307 1291.27 8.24063183e+00 -1.00000000e+00 
306 1292.78 8.29243791e+00 -1.00000000e+00 
305 1294.30 8.30991085e+00 -1.00000000e+00 
304 1295.81 8.22666934e+00 -1.00000000e+00 
303 1297.32 8.22204876e+00 -1.00000000e+00 
302 1298.83 8.15233831e+00 -1.00000000e+00 
301 1300.34 8.12963414e+00 -1.00000000e+00 
300 1301.85 8.11379167e+00 -1.00000000e+00 
299 1303.35 8.09454447e+00 -1.00000000e+00 
298 1304.86 8.04170624e+00 -1.00000000e+00 
297 1306.36 8.06127509e+00 -1.00000000e+00 
296 1307.86 8.00753563e+00 -1.00000000e+00 
295 1309.36 7.94321232e+00 -1.00000000e+00 
294 1310.86 7.88022689e+00 -1.00000000e+00 
293 1312.36 7.80473187e+00 -1.00000000e+00 
292 1313.86 7.75752221e+00 -1.00000000e+00 
291 1315.36 7.75725836e+00 -1.00000000e+00 
290 1316.85 7.69669904e+00 -1.00000000e+00 
289 1318.34 7.68637105e+00 -1.00000000e+00 
288 1319.84 7.66463267e+00 -1.00000000e+00 
287 1321.33 7.67013759e+00 -1.00000000e+00 
286 1322.82 7.56491112e+00 -1.00000000e+00 
285 1324.30 7.56753823e+00 -1.00000000e+00 
284 1325.79 7.49551564e+00 -1.00000000e+00 
283 1327.28 7.45789975e+00 -1.00000000e+00 
282 1328.76 7.38644815e+00 -1.00000000e+00 
281 1330.25 7.35608347e+00 -1.00000000e+00 
280 1331.73 7.29280618e+00 -1.00000000e+00 
279 1333.21 7.29781525e+00 -1.00000000e+00 
278 1334.69 7.25295568e+00 -1.00000000e+00 
277 1336.17 7.18177652e+00 -1.00000000e+00 
276 1337.65 7.13339775e+00 -1.00000000e+00 
275 1339.12 7.04815254e+00 -1.00000000e+00 
274 1340.60 7.01612348e+00 -1.00000000e+00 
273 1342.07 7.03217467e+00 -1.00000000e+00 
272 1343.55 6.95391961e+00 -1.00000000e+00 
271 1345.02 6.85698182e+00 -1.00000000e+00 
270 1346.49 6.73548655e+00 -1.00000000e+00 
269 1347.96 6.65485854e+00 -1.00000000e+00 
268 1349.43 6.50848259e+00 -1.00000000e+00 
267 1350.89 6.37928419e+00 -1.00000000e+00 
266 1352.36 6.16846208e+00 -1.00000000e+00 
265 1353.82 5.99954898e+00 -1.00000000e+00 
264 1355.29 5.88815605e+00 -1.00000000e+00 
263 1356.75 5.80386805e+00 -1.00000000e+00 
262 1358.21 5.63365860e+00 -1.00000000e+00 
261 1359.67 5.50417493e+00 -1.00000000e+00 
260 1361.13 5.36848641e+00 -1.00000000e+00 
259 1362.59 5.23126242e+00 -1.00000000e+00 
258 1364.04 5.22449143e+00 -1.00000000e+00 
257 1365.50 5.19438970e+00 -1.00000000e+00 
256 1366.95 5.18299724e+00 -1.00000000e+00 
255 1368.41 5.16511786e+00 -1.00000000e+00 
254 1369.86 5.08549312e+00 -1.00000000e+00 
253 1371.31 4.99604389e+00 -1.00000000e+00 
252 1372.76 4.78696777e+00 -1.00000000e+00 
251 1374.21 4.61616032e+00 -1.00000000e+00 
250 1375.65 4.29719847e+00 -1.00000000e+00 
249 1377.10 3.97225421e+00 -1.00000000e+00 
248 1378.55 3.65456529e+00 -1.00000000e+00 
247 1379.99 3.37549003e+00 -1.00000000e+00 
246 1381.43 3.32419179e+00 -1.00000000e+00 
245 1382.87 3.41515355e+00 -1.00000000e+00 
244 1384.32 3.49819395e+00 -1.00000000e+00 
243 1385.75 3.65262656e+00 -1.00000000e+00 
242 1387.19 3.78339284e+00 -1.00000000e+00 
241 1388.63 3.79674848e+00 -1.00000000e+00 
240 1390.07 3.83104024e+00 -1.00000000e+00 
239 1391.50 3.90567006e+00 -1.00000000e+00 
238 1392.94 3.83091316e+00 -1.00000000e+00 
237 1394.37 3.94132925e+00 -1.00000000e+00 
236 1395.80 4.06991453e+00 -1.00000000e+00 
235 1397.23 4.06239486e+00 -1.00000000e+00 
234 1398.66 4.17774940e+00 -1.00000000e+00 
233 1400.09 4.32861418e+00 -1.00000000e+00 
232 1401.52 4.33716410e+00 -1.00000000e+00 
231 1402.94 4.45926900e+00 -1.00000000e+00 
230 1404.37 4.50159323e+00 -1.00000000e+00 
229 1405.79 4.46005714e+00 -1.00000000e+00 
228 1407.22 4.50406506e+00 -1.00000000e+00 
227 1408.64 4.58022500e+00 -1.00000000e+00 
226 1410.06 4.64011106e+00 -1.00000000e+00 
225 1411.48 4.64188188e+00 -1.00000000e+00 
224 1412.90 4.68353137e+00 -1.00000000e+00 
223 1414.32 4.70707484e+00 -1.00000000e+00 
222 1415.73 4.78676506e+00 -1.00000000e+00 
221 1417.15 4.83326653e+00 -1.00000000e+00 
220 1418.56 4.88836239e+00 -1.00000000e+00 
219 1419.98 4.88117388e+00 -1.00000000e+00 
218 1421.39 4.90279750e+00 -1.00000000e+00 
217 1422.80 4.88790353e+00 -1.00000000e+00 
216 1424.21 4.90859679e+00 -1.00000000e+00 
215 1425.62 4.91338351e+00 -1.00000000e+00 
214 1427.03 4.89418622e+00 -1.00000000e+00 
213 1428.44 4.69349212e+00 -1.00000000e+00 
212 1429.84 4.54588929e+00 -1.00000000e+00 
211 1431.25 4.44162376e+00 -1.00000000e+00 
210 1432.65 4.39258866e+00 -1.00000000e+00 
209 1434.06 4.48378372e+00 -1.00000000e+00 
208 1435.46 4.58083646e+00 -1.00000000e+00 
207 1436.86 4.57788212e+00 -1.00000000e+00 
206 1438.26 4.60670140e+00 -1.00000000e+00 
205 1439.66 4.58258625e+00 -1.00000000e+00 
204 1441.05 4.65833455e+00 -1.00000000e+00 
203 1442.45 4.64712214e+00 -1.00000000e+00 
202 1443.85 4.73571780e+00 -1.00000000e+00 
201 1445.24 4.75522855e+00 -1.00000000e+00 
200 1446.64 4.81096787e+00 -1.00000000e+00 
199 1448.03 4.80807288e+00 -1.00000000e+00 
198 1449.42 4.84093610e+00 -1.00000000e+00 
197 1450.81 4.79491999e+00 -1.00000000e+00 
196 1452.20 4.78234156e+00 -1.00000000e+00 
195 1453.59 4.79251498e+00 -1.00000000e+00 
194 1454.97 4.83361527e+00 -1.00000000e+00 
193 1456.36 4.82130350e+00 -1.00000000e+00 
192 1457.75 4.87580773e+00 -1.00000000e+00 
191 1459.13 4.85427222e+00 -1.00000000e+00 
190 1460.51 4.86898314e+00 -1.00000000e+00 
189 1461.90 4.79400104e+00 -1.00000000e+00 
188 1463.28 4.80257327e+00 -1.00000000e+00 
187 1464.66 4.74557447e+00 -1.00000000e+00 
186 1466.04 4.76755657e+00 -1.00000000e+00 
185 1467.41 4.73360035e+00 -1.00000000e+00 
184 1468.79 4.71958172e+00 -1.00000000e+00 
183 1470.17 4.68462266e+00 -1.00000000e+00 
182 1471.54 4.69947527e+00 -1.00000000e+00 
181 1472.92 4.67655610e+00 -1.00000000e+00 
180 1474.29 4.71289350e+00 -1.00000000e+00 
179 1475.66 4.66961270e+00 -1.00000000e+00 
178 1477.03 4.65802412e+00 -1.00000000e+00 
177 1478.40 4.68403783e+00 -1.00000000e+00 
176 1479.77 4.71781626e+00 -1.00000000e+00 
175 1481.14 4.68835506e+00 -1.00000000e+00 
174 1482.51 4.72483678e+00 -1.00000000e+00 
173 1483.87 4.65674364e+00 -1.00000000e+00 
172 1485.24 4.60294584e+00 -1.00000000e+00 
171 1486.60 4.52222307e+00 -1.00000000e+00 
170 1487.96 4.51220964e+00 -1.00000000e+00 
169 1489.32 4.46843752e+00 -1.00000000e+00 
168 1490.69 4.57038992e+00 -1.00000000e+00 
167 1492.04 4.55130116e+00 -1.00000000e+00 
166 1493.40 4.59876271e+00 -1.00000000e+00 
165 1494.76 4.53666629e+00 -1.00000000e+00 
164 1496.12 4.53104860e+00 -1.00000000e+00 
163 1497.47 4.46269962e+00 -1.00000000e+00 
162 1498.83 4.49972407e+00 -1.00000000e+00 
161 1500.18 4.35226208e+00 -1.00000000e+00 
160 1501.53 4.28841594e+00 -1.00000000e+00 
159 1502.89 4.17261441e+00 -1.00000000e+00 
158 1504.24 4.20105378e+00 -1.00000000e+00 
157 1505.59 4.24658159e+00 -1.00000000e+00 
156 1506.93 4.33978668e+00 -1.00000000e+00 
155 1508.28 4.36789494e+00 -1.00000000e+00 
154 1509.63 4.41032113e+00 -1.00000000e+00 
153 1510.97 4.35464744e+00 -1.00000000e+00 
152 1512.32 4.40244753e+00 -1.00000000e+00 
151 1513.66 4.33764115e+00 -1.00000000e+00 
150 1515.00 4.36686862e+00 -1.00000000e+00 
149 1516.34 4.32464086e+00 -1.00000000e+00 
148 1517.69 4.33057075e+00 -1.00000000e+00 
147 1519.02 4.23556513e+00 -1.00000000e+00 
146 1520.36 4.22006623e+00 -1.00000000e+00 
145 1521.70 4.14763737e+00 -1.00000000e+00 
144 1523.04 4.20301058e+00 -1.00000000e+00 
143 1524.37 4.18830089e+00 -1.00000000e+00 
142 1525.71 4.23945112e+00 -1.00000000e+00 
141 1527.04 4.17756295e+00 -1.00000000e+00 
140 1528.37 4.19710613e+00 -1.00000000e+00 
139 1529.70 4.10463735e+00 -1.00000000e+00 
138 1531.03 4.14180258e+00 -1.00000000e+00 
137 1532.36 4.09117606e+00 -1.00000000e+00 
136 1533.69 4.13978664e+00 -1.00000000e+00 
135 1535.02 4.06115988e+00 -1.00000000e+00 
134 1536.34 4.10016392e+00 -1.00000000e+00 
133 1537.67 4.03912416e+00 -1.00000000e+00 
132 1538.99 4.06610343e+00 -1.00000000e+00 
131 1540.31 4.01875125e+00 -1.00000000e+00 
130 1541.64 4.06024123e+00 -1.00000000e+00 
129 1542.96 4.01773646e+00 -1.00000000e+00 
128 1544.28 4.04825876e+00 -1.00000000e+00 
127 1545.60 3.97206924e+00 -1.00000000e+00 
126 1546.91 4.03119579e+00 -1.00000000e+00 
125 1548.23 3.96183810e+00 -1.00000000e+00 
124 1549.55 4.00692529e+00 -1.00000000e+00 
123 1550.86 3.93302938e+00 -1.00000000e+00 
122 1552.18 3.95426305e+00 -1.00000000e+00 
121 1553.49 3.90004319e+00 -1.00000000e+00 
120 1554.80 3.94914208e+00 -1.00000000e+00 
119 1556.11 3.87237817e+00 -1.00000000e+00 
118 1557.42 3.91093018e+00 -1.00000000e+00 
117 1558.73 3.82793347e+00 -1.00000000e+00 
116 1560.04 3.84136690e+00 -1.00000000e+00 
115 1561.34 3.74864985e+00 -1.00000000e+00 
114 1562.65 3.80896606e+00 -1.00000000e+00 
113 1563.95 3.74211997e+00 -1.00000000e+00 
112 1565.26 3.80763341e+00 -1.00000000e+00 
111 1566.56 3.69302413e+00 -1.00000000e+00 
110 1567.86 3.70823663e+00 -1.00000000e+00 
109 1569.16 3.60513682e+00 -1.00000000e+00 
108 1570.46 3.58082674e+00 -1.00000000e+00 
107 1571.76 3.48148270e+00 -1.00000000e+00 
106 1573.05 3.43701031e+00 -1.00000000e+00 
105 1574.35 3.33984545e+00 -1.00000000e+00 
104 1575.64 3.37167232e+00 -1.00000000e+00 
103 1576.94 3.34160018e+00 -1.00000000e+00 
102 1578.23 3.41783990e+00 -1.00000000e+00 
101 1579.52 3.40143537e+00 -1.00000000e+00 
100 1580.81 3.45825403e+00 -1.00000000e+00 
99 1582.10 3.39615887e+00 -1.00000000e+00 
98 1583.39 3.43801219e+00 -1.00000000e+00 
97 1584.68 3.34168630e+00 -1.00000000e+00 
96 1585.97 3.31723857e+00 -1.00000000e+00 
95 1587.25 3.21269348e+00 -1.00000000e+00 
94 1588.54 3.21788657e+00 -1.00000000e+00 
93 1589.82 3.14991006e+00 -1.00000000e+00 
92 1591.10 3.24281116e+00 -1.00000000e+00 
91 1592.38 3.20059828e+00 -1.00000000e+00 
90 1593.66 3.24509850e+00 -1.00000000e+00 
89 1594.94 3.17073613e+00 -1.00000000e+00 
88 1596.22 3.18939277e+00 -1.00000000e+00 
87 1597.50 3.10604220e+00 -1.00000000e+00 
86 1598.77 3.11440717e+00 -1.00000000e+00 
85 1600.05 3.01459541e+00 -1.00000000e+00 
84 1601.32 3.03857342e+00 -1.00000000e+00 
83 1602.59 2.97206411e+00 -1.00000000e+00 
82 1603.86 3.02283428e+00 -1.00000000e+00 
81 1605.13 2.92589730e+00 -1.00000000e+00 
80 1606.40 2.97647966e+00 -1.00000000e+00 
79 1607.67 2.88067214e+00 -1.00000000e+00 
78 1608.94 2.92604464e+00 -1.00000000e+00 
77 1610.20 2.85511872e+00 -1.00000000e+00 
76 1611.47 2.91046117e+00 -1.00000000e+00 
75 1612.73 2.84568975e+00 -1.00000000e+00 
74 1614.00 2.89984268e+00 -1.00000000e+00 
73 1615.26 2.82399116e+00 -1.00000000e+00 
72 1616.52 2.85086805e+00 -1.00000000e+00 
71 1617.78 2.75329099e+00 -1.00000000e+00 
70 1619.03 2.78064999e+00 -1.00000000e+00 
69 1620.29 2.71975018e+00 -1.00000000e+00 
68 1621.55 2.75959475e+00 -1.00000000e+00 
67 1622.80 2.69899897e+00 -1.00000000e+00 
66 1624.06 2.74700268e+00 -1.00000000e+00 
65 1625.31 2.65200429e+00 -1.00000000e+00 
64 1626.56 2.70252047e+00 -1.00000000e+00 
63 1627.81 2.62046591e+00 -1.00000000e+00 
62 1629.06 2.64501129e+00 -1.00000000e+00 
