% C0 (TOA Count Rate, /ms) for 4STAR NIR spectrometer (512 channels) derived from 20160114starsun_wFORJcorr_meanc0.mat and recorded on 2016-02-01 11:52:13.
% Data outside 2.0x the STD of 501 nm Langley residuals were screened out.
Pix Wavelength C0 C0err
511 949.79 4.51535059e+00 1.35460518e-01 
510 949.79 4.84090944e+00 1.45227283e-01 
509 951.68 5.25142310e+00 1.57542693e-01 
508 953.57 5.29929851e+00 1.58978955e-01 
507 955.46 5.76323901e+00 1.72897170e-01 
506 957.34 5.86610826e+00 1.75983248e-01 
505 959.22 6.38359968e+00 1.91507990e-01 
504 961.10 6.48636421e+00 1.94590926e-01 
503 962.98 6.98195660e+00 2.09458698e-01 
502 964.85 7.02154018e+00 2.10646205e-01 
501 966.72 7.58560481e+00 2.27568144e-01 
500 968.59 7.65582118e+00 2.29674635e-01 
499 970.45 8.09150289e+00 2.42745087e-01 
498 972.32 8.02499389e+00 2.40749817e-01 
497 974.18 8.35369025e+00 2.50610707e-01 
496 976.04 8.27528001e+00 2.48258400e-01 
495 977.89 8.63531046e+00 2.59059314e-01 
494 979.74 8.58129888e+00 2.57438966e-01 
493 981.59 8.88545269e+00 2.66563581e-01 
492 983.44 8.79000325e+00 2.63700098e-01 
491 985.29 9.07495437e+00 2.72248631e-01 
490 987.13 8.87739611e+00 2.66321883e-01 
489 988.97 9.11408390e+00 2.73422517e-01 
488 990.81 8.92624884e+00 2.67787465e-01 
487 992.65 9.08435444e+00 2.72530633e-01 
486 994.48 8.88432941e+00 2.66529882e-01 
485 996.31 9.04691950e+00 2.71407585e-01 
484 998.14 8.79439437e+00 2.63831831e-01 
483 999.97 8.93529310e+00 2.68058793e-01 
482 1001.79 8.65023718e+00 2.59507115e-01 
481 1003.62 8.71530373e+00 2.61459112e-01 
480 1005.44 8.50993896e+00 2.55298169e-01 
479 1007.25 8.73822063e+00 2.62146619e-01 
478 1009.07 8.56093886e+00 2.56828166e-01 
477 1010.88 8.73606277e+00 2.62081883e-01 
476 1012.69 8.49665462e+00 2.54899639e-01 
475 1014.50 8.61777929e+00 2.58533379e-01 
474 1016.31 8.39188458e+00 2.51756537e-01 
473 1018.11 8.54444418e+00 2.56333326e-01 
472 1019.91 8.30685893e+00 2.49205768e-01 
471 1021.71 8.45502453e+00 2.53650736e-01 
470 1023.51 8.23223304e+00 2.46966991e-01 
469 1025.30 8.39214182e+00 2.51764255e-01 
468 1027.09 8.28478766e+00 2.48543630e-01 
467 1028.88 8.43069732e+00 2.52920920e-01 
466 1030.67 8.29169886e+00 2.48750966e-01 
465 1032.46 8.47502374e+00 2.54250712e-01 
464 1034.24 8.32545442e+00 2.49763633e-01 
463 1036.02 8.52538396e+00 2.55761519e-01 
462 1037.80 8.39100736e+00 2.51730221e-01 
461 1039.58 8.60942670e+00 2.58282801e-01 
460 1041.35 8.46922872e+00 2.54076861e-01 
459 1043.12 8.62287566e+00 2.58686270e-01 
458 1044.89 8.53209878e+00 2.55962963e-01 
457 1046.66 8.76973123e+00 2.63091937e-01 
456 1048.43 8.68882191e+00 2.60664657e-01 
455 1050.19 8.91137171e+00 2.67341151e-01 
454 1051.95 8.76501276e+00 2.62950383e-01 
453 1053.71 9.02305305e+00 2.70691592e-01 
452 1055.47 8.85468282e+00 2.65640485e-01 
451 1057.23 8.98591026e+00 2.69577308e-01 
450 1058.98 8.87187440e+00 2.66156232e-01 
449 1060.73 9.05110635e+00 2.71533190e-01 
448 1062.48 8.86507156e+00 2.65952147e-01 
447 1064.23 9.03998540e+00 2.71199562e-01 
446 1065.97 8.75585116e+00 2.62675535e-01 
445 1067.71 8.80791991e+00 2.64237597e-01 
444 1069.46 8.58857658e+00 2.57657297e-01 
443 1071.19 8.67955051e+00 2.60386515e-01 
442 1072.93 8.53100126e+00 2.55930038e-01 
441 1074.67 8.63138620e+00 2.58941586e-01 
440 1076.40 8.43645614e+00 2.53093684e-01 
439 1078.13 8.48435578e+00 2.54530674e-01 
438 1079.86 8.24005420e+00 2.47201626e-01 
437 1081.58 8.32103275e+00 2.49630983e-01 
436 1083.31 8.21085500e+00 2.46325650e-01 
435 1085.03 8.39979677e+00 2.51993903e-01 
434 1086.75 8.29699804e+00 2.48909941e-01 
433 1088.47 8.42987408e+00 2.52896222e-01 
432 1090.19 8.31120255e+00 2.49336076e-01 
431 1091.90 8.41227716e+00 2.52368315e-01 
430 1093.61 8.23969055e+00 2.47190716e-01 
429 1095.33 8.46399885e+00 2.53919965e-01 
428 1097.03 8.46330288e+00 2.53899086e-01 
427 1098.74 8.71446673e+00 2.61434002e-01 
426 1100.45 8.69269591e+00 2.60780877e-01 
425 1102.15 8.99184341e+00 2.69755302e-01 
424 1103.85 8.95430565e+00 2.68629170e-01 
423 1105.55 9.14716511e+00 2.74414953e-01 
422 1107.25 9.00532387e+00 2.70159716e-01 
421 1108.94 9.04717738e+00 2.71415321e-01 
420 1110.64 8.70791156e+00 2.61237347e-01 
419 1112.33 8.50078767e+00 2.55023630e-01 
418 1114.02 7.90333940e+00 2.37100182e-01 
417 1115.70 7.73500662e+00 2.32050199e-01 
416 1117.39 7.42935050e+00 2.22880515e-01 
415 1119.07 7.30810969e+00 2.19243291e-01 
414 1120.76 7.06507701e+00 2.11952310e-01 
413 1122.44 6.97845375e+00 2.09353613e-01 
412 1124.12 6.93244923e+00 2.07973477e-01 
411 1125.79 7.25553150e+00 2.17665945e-01 
410 1127.47 7.52402228e+00 2.25720669e-01 
409 1129.14 7.99111919e+00 2.39733576e-01 
408 1130.81 7.40712306e+00 2.22213692e-01 
407 1132.48 7.16510891e+00 2.14953267e-01 
406 1134.15 7.03836929e+00 2.11151079e-01 
405 1135.81 7.55654142e+00 2.26696242e-01 
404 1137.48 8.40316166e+00 2.52094850e-01 
403 1139.14 8.77514333e+00 2.63254300e-01 
402 1140.80 8.41948048e+00 2.52584414e-01 
401 1142.46 8.25356772e+00 2.47607032e-01 
400 1144.12 7.86328672e+00 2.35898602e-01 
399 1145.77 7.84276733e+00 2.35283020e-01 
398 1147.43 7.88535431e+00 2.36560629e-01 
397 1149.08 8.18137862e+00 2.45441359e-01 
396 1150.73 8.15287880e+00 2.44586364e-01 
395 1152.38 8.48670969e+00 2.54601291e-01 
394 1154.02 8.52025962e+00 2.55607788e-01 
393 1155.67 8.86494743e+00 2.65948423e-01 
392 1157.31 8.82886209e+00 2.64865863e-01 
391 1158.95 8.98099106e+00 2.69429732e-01 
390 1160.59 9.01199240e+00 2.70359772e-01 
389 1162.23 9.23945902e+00 2.77183771e-01 
388 1163.87 9.21145226e+00 2.76343568e-01 
387 1165.50 9.31183072e+00 2.79354922e-01 
386 1167.13 9.19192049e+00 2.75757615e-01 
385 1168.76 9.29826278e+00 2.78947884e-01 
384 1170.39 9.12187220e+00 2.73656166e-01 
383 1172.02 9.11365908e+00 2.73409772e-01 
382 1173.65 8.93602487e+00 2.68080746e-01 
381 1175.27 8.94100452e+00 2.68230136e-01 
380 1176.90 8.83531546e+00 2.65059464e-01 
379 1178.52 8.74607829e+00 2.62382349e-01 
378 1180.14 8.51523790e+00 2.55457137e-01 
377 1181.75 8.47320319e+00 2.54196096e-01 
376 1183.37 8.28514464e+00 2.48554339e-01 
375 1184.99 8.31063296e+00 2.49318989e-01 
374 1186.60 8.20731065e+00 2.46219320e-01 
373 1188.21 8.20678124e+00 2.46203437e-01 
372 1189.82 8.15062568e+00 2.44518770e-01 
371 1191.43 8.38129184e+00 2.51438755e-01 
370 1193.04 8.27133382e+00 2.48140015e-01 
369 1194.64 8.23895566e+00 2.47168670e-01 
368 1196.24 8.03503007e+00 2.41050902e-01 
367 1197.85 8.09520811e+00 2.42856243e-01 
366 1199.45 7.98813071e+00 2.39643921e-01 
365 1201.05 8.04855117e+00 2.41456535e-01 
364 1202.64 7.96610325e+00 2.38983098e-01 
363 1204.24 8.01301738e+00 2.40390521e-01 
362 1205.83 7.96827365e+00 2.39048210e-01 
361 1207.43 8.00232027e+00 2.40069608e-01 
360 1209.02 7.94639773e+00 2.38391932e-01 
359 1210.61 8.08696544e+00 2.42608963e-01 
358 1212.19 8.10016713e+00 2.43005014e-01 
357 1213.78 8.27193615e+00 2.48158084e-01 
356 1215.37 8.19491909e+00 2.45847573e-01 
355 1216.95 8.24428724e+00 2.47328617e-01 
354 1218.53 8.19500176e+00 2.45850053e-01 
353 1220.11 8.27216498e+00 2.48164949e-01 
352 1221.69 8.21675753e+00 2.46502726e-01 
351 1223.27 8.27799512e+00 2.48339854e-01 
350 1224.84 8.27539766e+00 2.48261930e-01 
349 1226.42 8.34450271e+00 2.50335081e-01 
348 1227.99 8.32060687e+00 2.49618206e-01 
347 1229.56 8.45039580e+00 2.53511874e-01 
346 1231.13 8.37214859e+00 2.51164458e-01 
345 1232.70 8.47092956e+00 2.54127887e-01 
344 1234.27 8.44804194e+00 2.53441258e-01 
343 1235.84 8.45551343e+00 2.53665403e-01 
342 1237.40 8.39652109e+00 2.51895633e-01 
341 1238.96 8.39017715e+00 2.51705315e-01 
340 1240.52 8.22738555e+00 2.46821566e-01 
339 1242.08 8.33440034e+00 2.50032010e-01 
338 1243.64 8.32586096e+00 2.49775829e-01 
337 1245.20 8.38712411e+00 2.51613723e-01 
336 1246.75 8.34683928e+00 2.50405178e-01 
335 1248.31 8.43459040e+00 2.53037712e-01 
334 1249.86 8.37027322e+00 2.51108197e-01 
333 1251.41 8.41701820e+00 2.52510546e-01 
332 1252.96 8.32972657e+00 2.49891797e-01 
331 1254.51 8.34951487e+00 2.50485446e-01 
330 1256.06 8.25227858e+00 2.47568357e-01 
329 1257.61 8.22851984e+00 2.46855595e-01 
328 1259.15 8.09270080e+00 2.42781024e-01 
327 1260.69 8.00836165e+00 2.40250849e-01 
326 1262.23 7.81812805e+00 2.34543842e-01 
325 1263.77 7.74251161e+00 2.32275348e-01 
324 1265.31 7.47792712e+00 2.24337814e-01 
323 1266.85 7.48988386e+00 2.24696516e-01 
322 1268.39 7.55177916e+00 2.26553375e-01 
321 1269.92 7.69806238e+00 2.30941871e-01 
320 1271.46 7.96880994e+00 2.39064298e-01 
319 1272.99 8.10781268e+00 2.43234380e-01 
318 1274.52 8.08032163e+00 2.42409649e-01 
317 1276.05 8.15354239e+00 2.44606272e-01 
316 1277.58 8.00152127e+00 2.40045638e-01 
315 1279.10 7.87623142e+00 2.36286943e-01 
314 1280.63 7.80046107e+00 2.34013832e-01 
313 1282.15 7.79430091e+00 2.33829027e-01 
312 1283.68 7.89259903e+00 2.36777971e-01 
311 1285.20 8.10077992e+00 2.43023398e-01 
310 1286.72 8.09462555e+00 2.42838766e-01 
309 1288.24 8.10194543e+00 2.43058363e-01 
308 1289.75 8.00540744e+00 2.40162223e-01 
307 1291.27 8.03213775e+00 2.40964132e-01 
306 1292.78 8.06302160e+00 2.41890648e-01 
305 1294.30 8.06214418e+00 2.41864325e-01 
304 1295.81 7.97997610e+00 2.39399283e-01 
303 1297.32 7.96097202e+00 2.38829161e-01 
302 1298.83 7.87729794e+00 2.36318938e-01 
301 1300.34 7.81553402e+00 2.34466021e-01 
300 1301.85 7.75190864e+00 2.32557259e-01 
299 1303.35 7.67876718e+00 2.30363015e-01 
298 1304.86 7.58889909e+00 2.27666973e-01 
297 1306.36 7.56027079e+00 2.26808124e-01 
296 1307.86 7.48373784e+00 2.24512135e-01 
295 1309.36 7.37985068e+00 2.21395520e-01 
294 1310.86 7.25080877e+00 2.17524263e-01 
293 1312.36 7.18081287e+00 2.15424386e-01 
292 1313.86 7.14974018e+00 2.14492205e-01 
291 1315.36 7.16305836e+00 2.14891751e-01 
290 1316.85 7.12195894e+00 2.13658768e-01 
289 1318.34 7.11097551e+00 2.13329265e-01 
288 1319.84 7.01439016e+00 2.10431705e-01 
287 1321.33 7.01138418e+00 2.10341525e-01 
286 1322.82 6.95987461e+00 2.08796238e-01 
285 1324.30 6.90584343e+00 2.07175303e-01 
284 1325.79 6.71813457e+00 2.01544037e-01 
283 1327.28 6.53097747e+00 1.95929324e-01 
282 1328.76 6.23399998e+00 1.87019999e-01 
281 1330.25 6.11991641e+00 1.83597492e-01 
280 1331.73 6.05688161e+00 1.81706448e-01 
279 1333.21 6.05665111e+00 1.81699533e-01 
278 1334.69 6.04829137e+00 1.81448741e-01 
277 1336.17 6.00850155e+00 1.80255047e-01 
276 1337.65 5.89819052e+00 1.76945716e-01 
275 1339.12 5.87996115e+00 1.76398834e-01 
274 1340.60 5.71493786e+00 1.71448136e-01 
273 1342.07 5.54958144e+00 1.66487443e-01 
272 1343.55 5.28959373e+00 1.58687812e-01 
271 1345.02 4.66428002e+00 1.39928400e-01 
270 1346.49 4.27801608e+00 1.28340482e-01 
269 1347.96 3.79159949e+00 1.13747985e-01 
268 1349.43 3.33145383e+00 9.99436150e-02 
267 1350.89 2.82894540e+00 8.48683620e-02 
266 1352.36 2.25594359e+00 6.76783078e-02 
265 1353.82 1.91882421e+00 5.75647263e-02 
264 1355.29 6.27750539e-01 1.88325162e-02 
263 1356.75 1.22611097e+00 3.67833292e-02 
262 1358.21 7.35446675e-01 2.20634002e-02 
261 1359.67 2.07289094e-01 6.21867281e-03 
260 1361.13 1.88492108e-01 5.65476323e-03 
259 1362.59 1.99444890e-01 5.98334670e-03 
258 1364.04 5.01052385e-01 1.50315715e-02 
257 1365.50 6.08638830e-01 1.82591649e-02 
256 1366.95 3.09749634e-01 9.29248902e-03 
255 1368.41 1.50543505e-01 4.51630516e-03 
254 1369.86 2.91314061e-01 8.73942183e-03 
253 1371.31 9.47211277e-01 2.84163383e-02 
252 1372.76 4.15315021e-01 1.24594506e-02 
251 1374.21 1.48203756e+00 4.44611268e-02 
250 1375.65 1.06131034e+00 3.18393102e-02 
249 1377.10 1.27955524e+00 3.83866571e-02 
248 1378.55 4.41295520e-01 1.32388656e-02 
247 1379.99 7.26808209e-01 2.18042463e-02 
246 1381.43 2.27403196e-01 6.82209588e-03 
245 1382.87 4.01099934e-01 1.20329980e-02 
244 1384.32 3.74354776e-01 1.12306433e-02 
243 1385.75 9.23676893e-01 2.77103068e-02 
242 1387.19 1.32824367e+00 3.98473102e-02 
241 1388.63 1.10860572e+00 3.32581716e-02 
240 1390.07 1.59615721e+00 4.78847162e-02 
239 1391.50 1.50751048e+00 4.52253145e-02 
238 1392.94 4.14538166e-01 1.24361450e-02 
237 1394.37 1.06201734e+00 3.18605203e-02 
236 1395.80 1.25120067e+00 3.75360201e-02 
235 1397.23 1.22528025e+00 3.67584074e-02 
234 1398.66 6.05533157e-01 1.81659947e-02 
233 1400.09 1.49690490e+00 4.49071471e-02 
232 1401.52 1.22598632e+00 3.67795895e-02 
231 1402.94 1.57643066e+00 4.72929199e-02 
230 1404.37 1.50358848e+00 4.51076543e-02 
229 1405.79 1.62176228e+00 4.86528684e-02 
228 1407.22 1.51960870e+00 4.55882609e-02 
227 1408.64 1.78821445e+00 5.36464336e-02 
226 1410.06 1.87518556e+00 5.62555667e-02 
225 1411.48 1.83157862e+00 5.49473586e-02 
224 1412.90 2.04495822e+00 6.13487465e-02 
223 1414.32 2.26172894e+00 6.78518682e-02 
222 1415.73 2.15701520e+00 6.47104560e-02 
221 1417.15 2.26133491e+00 6.78400473e-02 
220 1418.56 2.38559240e+00 7.15677721e-02 
219 1419.98 2.34343410e+00 7.03030231e-02 
218 1421.39 2.50877116e+00 7.52631347e-02 
217 1422.80 2.79518206e+00 8.38554618e-02 
216 1424.21 2.83659895e+00 8.50979686e-02 
215 1425.62 2.81889178e+00 8.45667533e-02 
214 1427.03 2.90290822e+00 8.70872466e-02 
213 1428.44 2.70955087e+00 8.12865260e-02 
212 1429.84 2.54260850e+00 7.62782551e-02 
211 1431.25 2.56209990e+00 7.68629969e-02 
210 1432.65 2.53765881e+00 7.61297644e-02 
209 1434.06 2.63426642e+00 7.90279927e-02 
208 1435.46 2.75367558e+00 8.26102673e-02 
207 1436.86 2.81676350e+00 8.45029049e-02 
206 1438.26 2.84562411e+00 8.53687234e-02 
205 1439.66 2.97486206e+00 8.92458617e-02 
204 1441.05 3.15388399e+00 9.46165198e-02 
203 1442.45 3.09734090e+00 9.29202271e-02 
202 1443.85 3.10654356e+00 9.31963069e-02 
201 1445.24 3.24959529e+00 9.74878586e-02 
200 1446.64 3.24962136e+00 9.74886408e-02 
199 1448.03 3.13840041e+00 9.41520124e-02 
198 1449.42 3.23473581e+00 9.70420742e-02 
197 1450.81 3.27279159e+00 9.81837478e-02 
196 1452.20 3.34673471e+00 1.00402041e-01 
195 1453.59 3.68849129e+00 1.10654739e-01 
194 1454.97 3.94116815e+00 1.18235044e-01 
193 1456.36 3.99123353e+00 1.19737006e-01 
192 1457.75 4.01775045e+00 1.20532514e-01 
191 1459.13 3.96296044e+00 1.18888813e-01 
190 1460.51 3.87425543e+00 1.16227663e-01 
189 1461.90 3.73402085e+00 1.12020625e-01 
188 1463.28 3.60968747e+00 1.08290624e-01 
187 1464.66 3.52114335e+00 1.05634300e-01 
186 1466.04 3.55397473e+00 1.06619242e-01 
185 1467.41 3.39522299e+00 1.01856690e-01 
184 1468.79 3.27953871e+00 9.83861613e-02 
183 1470.17 3.23789196e+00 9.71367589e-02 
182 1471.54 3.26998026e+00 9.80994077e-02 
181 1472.92 3.41838952e+00 1.02551686e-01 
180 1474.29 3.59051745e+00 1.07715523e-01 
179 1475.66 3.62344657e+00 1.08703397e-01 
178 1477.03 3.55391363e+00 1.06617409e-01 
177 1478.40 3.51665226e+00 1.05499568e-01 
176 1479.77 3.60195263e+00 1.08058579e-01 
175 1481.14 3.66042178e+00 1.09812653e-01 
174 1482.51 3.75243499e+00 1.12573050e-01 
173 1483.87 3.75499403e+00 1.12649821e-01 
172 1485.24 3.74485695e+00 1.12345709e-01 
171 1486.60 3.72755185e+00 1.11826556e-01 
170 1487.96 3.80063606e+00 1.14019082e-01 
169 1489.32 3.84601563e+00 1.15380469e-01 
168 1490.69 4.02008936e+00 1.20602681e-01 
167 1492.04 4.03376268e+00 1.21012880e-01 
166 1493.40 4.09966436e+00 1.22989931e-01 
165 1494.76 4.09693009e+00 1.22907903e-01 
164 1496.12 4.12818759e+00 1.23845628e-01 
163 1497.47 4.12191744e+00 1.23657523e-01 
162 1498.83 4.22772032e+00 1.26831610e-01 
161 1500.18 4.06278785e+00 1.21883635e-01 
160 1501.53 3.98672711e+00 1.19601813e-01 
159 1502.89 3.87261828e+00 1.16178548e-01 
158 1504.24 3.89991217e+00 1.16997365e-01 
157 1505.59 3.94223616e+00 1.18267085e-01 
156 1506.93 4.07029829e+00 1.22108949e-01 
155 1508.28 4.11976752e+00 1.23593026e-01 
154 1509.63 4.16116799e+00 1.24835040e-01 
153 1510.97 4.14279269e+00 1.24283781e-01 
152 1512.32 4.20590539e+00 1.26177162e-01 
151 1513.66 4.14490201e+00 1.24347060e-01 
150 1515.00 4.20456123e+00 1.26136837e-01 
149 1516.34 4.17551243e+00 1.25265373e-01 
148 1517.69 4.18670723e+00 1.25601217e-01 
147 1519.02 4.11976504e+00 1.23592951e-01 
146 1520.36 4.13585387e+00 1.24075616e-01 
145 1521.70 4.08333104e+00 1.22499931e-01 
144 1523.04 4.13753626e+00 1.24126088e-01 
143 1524.37 4.10756640e+00 1.23226992e-01 
142 1525.71 4.16254162e+00 1.24876248e-01 
141 1527.04 4.11137255e+00 1.23341176e-01 
140 1528.37 4.12707115e+00 1.23812134e-01 
139 1529.70 4.04421784e+00 1.21326535e-01 
138 1531.03 4.06735369e+00 1.22020611e-01 
137 1532.36 4.00966341e+00 1.20289902e-01 
136 1533.69 4.04845534e+00 1.21453660e-01 
135 1535.02 3.95961016e+00 1.18788305e-01 
134 1536.34 3.99823740e+00 1.19947122e-01 
133 1537.67 3.93982279e+00 1.18194684e-01 
132 1538.99 3.98722594e+00 1.19616778e-01 
131 1540.31 3.93690345e+00 1.18107103e-01 
130 1541.64 3.99860177e+00 1.19958053e-01 
129 1542.96 3.96184392e+00 1.18855318e-01 
128 1544.28 4.00321398e+00 1.20096419e-01 
127 1545.60 3.93285557e+00 1.17985667e-01 
126 1546.91 3.96618869e+00 1.18985661e-01 
125 1548.23 3.87539466e+00 1.16261840e-01 
124 1549.55 3.91461328e+00 1.17438398e-01 
123 1550.86 3.84826259e+00 1.15447878e-01 
122 1552.18 3.86988997e+00 1.16096699e-01 
121 1553.49 3.82871464e+00 1.14861439e-01 
120 1554.80 3.85686898e+00 1.15706069e-01 
119 1556.11 3.78481860e+00 1.13544558e-01 
118 1557.42 3.81865790e+00 1.14559737e-01 
117 1558.73 3.74264775e+00 1.12279433e-01 
116 1560.04 3.76992268e+00 1.13097681e-01 
115 1561.34 3.68143121e+00 1.10442936e-01 
114 1562.65 3.72241101e+00 1.11672330e-01 
113 1563.95 3.63810653e+00 1.09143196e-01 
112 1565.26 3.68459635e+00 1.10537890e-01 
111 1566.56 3.57349028e+00 1.07204708e-01 
110 1567.86 3.58640487e+00 1.07592146e-01 
109 1569.16 3.47859059e+00 1.04357718e-01 
108 1570.46 3.45903430e+00 1.03771029e-01 
107 1571.76 3.36096874e+00 1.00829062e-01 
106 1573.05 3.32869406e+00 9.98608217e-02 
105 1574.35 3.21782214e+00 9.65346641e-02 
104 1575.64 3.25170382e+00 9.75511147e-02 
103 1576.94 3.21717555e+00 9.65152665e-02 
102 1578.23 3.27947248e+00 9.83841745e-02 
101 1579.52 3.28617753e+00 9.85853259e-02 
100 1580.81 3.36776256e+00 1.01032877e-01 
99 1582.10 3.31774075e+00 9.95322224e-02 
98 1583.39 3.36771997e+00 1.01031599e-01 
97 1584.68 3.27837769e+00 9.83513307e-02 
96 1585.97 3.26749549e+00 9.80248647e-02 
95 1587.25 3.16338462e+00 9.49015386e-02 
94 1588.54 3.17696139e+00 9.53088418e-02 
93 1589.82 3.10969841e+00 9.32909524e-02 
92 1591.10 3.19298365e+00 9.57895095e-02 
91 1592.38 3.15001027e+00 9.45003081e-02 
90 1593.66 3.21280422e+00 9.63841266e-02 
89 1594.94 3.12685189e+00 9.38055567e-02 
88 1596.22 3.13939885e+00 9.41819655e-02 
87 1597.50 3.03161945e+00 9.09485836e-02 
86 1598.77 3.02684798e+00 9.08054393e-02 
85 1600.05 2.90682415e+00 8.72047246e-02 
84 1601.32 2.92787150e+00 8.78361449e-02 
83 1602.59 2.85790317e+00 8.57370952e-02 
82 1603.86 2.92015938e+00 8.76047814e-02 
81 1605.13 2.81140175e+00 8.43420526e-02 
80 1606.40 2.86373038e+00 8.59119114e-02 
79 1607.67 2.77363885e+00 8.32091655e-02 
78 1608.94 2.81038870e+00 8.43116610e-02 
77 1610.20 2.76422103e+00 8.29266310e-02 
76 1611.47 2.83875033e+00 8.51625099e-02 
75 1612.73 2.79726863e+00 8.39180590e-02 
74 1614.00 2.85116317e+00 8.55348952e-02 
73 1615.26 2.77646485e+00 8.32939454e-02 
72 1616.52 2.80460012e+00 8.41380037e-02 
71 1617.78 2.70629186e+00 8.11887559e-02 
70 1619.03 2.74177924e+00 8.22533773e-02 
69 1620.29 2.66670828e+00 8.00012485e-02 
68 1621.55 2.72939074e+00 8.18817221e-02 
67 1622.80 2.66644319e+00 7.99932957e-02 
66 1624.06 2.73271120e+00 8.19813360e-02 
65 1625.31 2.64547027e+00 7.93641082e-02 
64 1626.56 2.69523624e+00 8.08570871e-02 
63 1627.81 2.59506234e+00 7.78518701e-02 
62 1629.06 2.60524294e+00 7.81572882e-02 
61 1630.31 2.51524699e+00 7.54574096e-02 
60 1631.56 2.52295751e+00 7.56887254e-02 
59 1632.80 2.45083144e+00 7.35249431e-02 
58 1634.05 2.48741591e+00 7.46224772e-02 
57 1635.29 2.37686783e+00 7.13060348e-02 
56 1636.53 2.39003764e+00 7.17011292e-02 
55 1637.77 2.26971530e+00 6.80914591e-02 
54 1639.01 2.28027381e+00 6.84082143e-02 
53 1640.25 2.21501051e+00 6.64503153e-02 
52 1641.49 2.23089356e+00 6.69268067e-02 
51 1642.73 2.17408348e+00 6.52225045e-02 
