% C0 (TOA Count Rate, /ms) for 4STAR NIR spectrometer (512 channels) derived from (SEE Original files for sources) and recorded on 2017-06-21 22:49:28.
% Langley at MLO and airborne Data outside 2.0x the STD of 501 nm Langley residuals were screened out. 
% Including high Altitude rate spectra, matched to splined stratospheric AOD measured at MLO.
% Averages of c0 from multiple days including: , infl-ig-ht, infl-ig-ht, high- a-lt, high- a-lt, high- a-lt. See the list of files below
% 20160825_NIR_C0_refined_Langley_ORACLES_transit2.dat
% 20160908_NIR_C0_refined_Langley_airborne_ORACLES_v1.dat
% 20160902_NIR_C0_refined_high_alt_low_m.dat
% 20160904_NIR_C0_refined_high_alt_low_m.dat
% 20160831_NIR_C0_refined_high_alt_low_m.dat
Pix Wavelength C0 C0err
511 949.79 5.42293620e+00 7.50994273e-02 
510 949.79 5.57888469e+00 7.68528478e-02 
509 951.68 5.97709230e+00 7.09664029e-02 
508 953.57 6.02775480e+00 6.26626486e-02 
507 955.46 6.50224707e+00 6.30115152e-02 
506 957.34 6.59592651e+00 5.93748823e-02 
505 959.22 7.06407786e+00 6.29269126e-02 
504 961.10 7.13794396e+00 5.33614796e-02 
503 962.98 7.56480006e+00 6.50676974e-02 
502 964.85 7.54773327e+00 5.16574826e-02 
501 966.72 8.05301280e+00 6.86107740e-02 
500 968.59 8.06461403e+00 6.17339189e-02 
499 970.45 8.46204233e+00 6.47719679e-02 
498 972.32 8.41100813e+00 5.11871342e-02 
497 974.18 8.74215680e+00 5.23231456e-02 
496 976.04 8.65292810e+00 5.24702704e-02 
495 977.89 8.98995733e+00 6.30591476e-02 
494 979.74 8.88361885e+00 5.64545535e-02 
493 981.59 9.16956872e+00 6.63228512e-02 
492 983.44 9.03701128e+00 7.31240604e-02 
491 985.29 9.29055747e+00 7.47527523e-02 
490 987.13 9.08547694e+00 7.48701383e-02 
489 988.97 9.31911771e+00 8.26219559e-02 
488 990.81 9.13082421e+00 7.15108773e-02 
487 992.65 9.30831058e+00 8.47742072e-02 
486 994.48 9.11137089e+00 7.64130994e-02 
485 996.31 9.26467068e+00 8.05252635e-02 
484 998.14 9.01668867e+00 6.94895580e-02 
483 999.97 9.15712747e+00 8.20782269e-02 
482 1001.79 8.88042313e+00 7.39264492e-02 
481 1003.62 8.95530128e+00 7.83329160e-02 
480 1005.44 8.73499386e+00 7.61074499e-02 
479 1007.25 8.97474903e+00 7.54966815e-02 
478 1009.07 8.75473771e+00 7.31266062e-02 
477 1010.88 8.92911675e+00 7.41137227e-02 
476 1012.69 8.65128558e+00 7.16437160e-02 
475 1014.50 8.77496131e+00 7.93137257e-02 
474 1016.31 8.55848015e+00 7.47238257e-02 
473 1018.11 8.70152577e+00 8.36187691e-02 
472 1019.91 8.44782289e+00 7.71927681e-02 
471 1021.71 8.60641689e+00 9.01253771e-02 
470 1023.51 8.38036619e+00 8.38998513e-02 
469 1025.30 8.55247119e+00 9.09163287e-02 
468 1027.09 8.44265798e+00 8.70561412e-02 
467 1028.88 8.59035859e+00 9.43810445e-02 
466 1030.67 8.43840629e+00 8.96931863e-02 
465 1032.46 8.61661708e+00 9.17057139e-02 
464 1034.24 8.45662528e+00 9.96545334e-02 
463 1036.02 8.65504925e+00 1.02477659e-01 
462 1037.80 8.52195997e+00 9.61236042e-02 
461 1039.58 8.72871724e+00 1.09162164e-01 
460 1041.35 8.57554378e+00 9.46462435e-02 
459 1043.12 8.73344865e+00 1.02652989e-01 
458 1044.89 8.65044460e+00 9.58925395e-02 
457 1046.66 8.88217401e+00 1.04740432e-01 
456 1048.43 8.81980740e+00 1.00682626e-01 
455 1050.19 9.04789168e+00 1.04245590e-01 
454 1051.95 8.91111137e+00 9.95365483e-02 
453 1053.71 9.17083677e+00 1.03809075e-01 
452 1055.47 9.00725072e+00 9.69518954e-02 
451 1057.23 9.14381437e+00 9.97459682e-02 
450 1058.98 8.99272533e+00 9.63702114e-02 
449 1060.73 9.15707078e+00 1.00398490e-01 
448 1062.48 8.94958306e+00 9.29868176e-02 
447 1064.23 9.07848251e+00 9.54081565e-02 
446 1065.97 8.78430174e+00 8.84469946e-02 
445 1067.71 8.83609878e+00 9.66255578e-02 
444 1069.46 8.63391555e+00 8.98319803e-02 
443 1071.19 8.75602785e+00 9.78727507e-02 
442 1072.93 8.60605545e+00 9.73250115e-02 
441 1074.67 8.69403515e+00 9.41215612e-02 
440 1076.40 8.49257968e+00 9.36119516e-02 
439 1078.13 8.52697539e+00 9.24961695e-02 
438 1079.86 8.29121788e+00 9.09172060e-02 
437 1081.58 8.36894894e+00 8.97398641e-02 
436 1083.31 8.25467809e+00 7.84250037e-02 
435 1085.03 8.44434611e+00 9.09991986e-02 
434 1086.75 8.37840363e+00 9.32673749e-02 
433 1088.47 8.54449032e+00 9.68298721e-02 
432 1090.19 8.44652770e+00 8.55876467e-02 
431 1091.90 8.56762937e+00 8.98906727e-02 
430 1093.61 8.44579425e+00 7.07777227e-02 
429 1095.33 8.66646605e+00 7.77647306e-02 
428 1097.03 8.70457159e+00 6.60505705e-02 
427 1098.74 8.96446306e+00 6.25539075e-02 
426 1100.45 8.98990132e+00 6.54964679e-02 
425 1102.15 9.28535975e+00 6.95115188e-02 
424 1103.85 9.30929178e+00 5.74216962e-02 
423 1105.55 9.59166919e+00 5.76997560e-02 
422 1107.25 9.53746568e+00 6.08113879e-02 
421 1108.94 9.71670191e+00 6.00566772e-02 
420 1110.64 9.55409021e+00 7.08738153e-02 
419 1112.33 9.60850760e+00 1.21596987e-01 
418 1114.02 9.29656396e+00 1.91505242e-01 
417 1115.70 9.28426859e+00 2.40061414e-01 
416 1117.39 9.03294932e+00 2.76313801e-01 
415 1119.07 9.01358310e+00 3.16616708e-01 
414 1120.76 8.87727369e+00 3.40687804e-01 
413 1122.44 8.96276863e+00 3.77465480e-01 
412 1124.12 8.90277631e+00 3.74070633e-01 
411 1125.79 9.09414026e+00 3.63189886e-01 
410 1127.47 9.21147769e+00 3.07617788e-01 
409 1129.14 9.47189086e+00 2.67079897e-01 
408 1130.81 9.12307650e+00 3.33309673e-01 
407 1132.48 9.06346201e+00 3.64460074e-01 
406 1134.15 8.90247395e+00 3.59880805e-01 
405 1135.81 9.17355853e+00 2.75469947e-01 
404 1137.48 9.49362831e+00 1.64101071e-01 
403 1139.14 9.70674404e+00 1.45671041e-01 
402 1140.80 9.45695449e+00 1.72952651e-01 
401 1142.46 9.45161545e+00 2.15542302e-01 
400 1144.12 9.21750422e+00 2.43177328e-01 
399 1145.77 9.27501955e+00 2.48171974e-01 
398 1147.43 9.23895323e+00 2.18121701e-01 
397 1149.08 9.38772802e+00 1.86999260e-01 
396 1150.73 9.33318972e+00 1.75439259e-01 
395 1152.38 9.55270773e+00 1.56711072e-01 
394 1154.02 9.49734660e+00 1.24651271e-01 
393 1155.67 9.68378730e+00 9.43956567e-02 
392 1157.31 9.50969459e+00 7.67571947e-02 
391 1158.95 9.58739142e+00 7.49447041e-02 
390 1160.59 9.48082545e+00 7.44750801e-02 
389 1162.23 9.61028174e+00 7.40825277e-02 
388 1163.87 9.48919628e+00 6.00049339e-02 
387 1165.50 9.55369566e+00 6.41085941e-02 
386 1167.13 9.43759912e+00 5.64888870e-02 
385 1168.76 9.54113613e+00 5.46502968e-02 
384 1170.39 9.41943404e+00 5.06950289e-02 
383 1172.02 9.40840310e+00 4.86512459e-02 
382 1173.65 9.20978179e+00 4.20252144e-02 
381 1175.27 9.19403536e+00 5.27944328e-02 
380 1176.90 9.06662160e+00 5.03189875e-02 
379 1178.52 9.04268666e+00 5.25998398e-02 
378 1180.14 8.82412597e+00 4.21171191e-02 
377 1181.75 8.82174899e+00 5.00092986e-02 
376 1183.37 8.63219123e+00 4.21065319e-02 
375 1184.99 8.65728080e+00 4.47098893e-02 
374 1186.60 8.51258387e+00 4.99249317e-02 
373 1188.21 8.46554650e+00 5.34447564e-02 
372 1189.82 8.36216648e+00 5.57329982e-02 
371 1191.43 8.55540697e+00 6.42390287e-02 
370 1193.04 8.45174016e+00 5.45230224e-02 
369 1194.64 8.44802450e+00 5.46847356e-02 
368 1196.24 8.28584322e+00 4.84004583e-02 
367 1197.85 8.34320698e+00 4.25085384e-02 
366 1199.45 8.22940497e+00 4.38645604e-02 
365 1201.05 8.31382533e+00 4.06722871e-02 
364 1202.64 8.22118924e+00 2.91547369e-02 
363 1204.24 8.23633501e+00 2.98228126e-02 
362 1205.83 8.14990452e+00 4.37579898e-02 
361 1207.43 8.16168926e+00 5.81980108e-02 
360 1209.02 8.11694835e+00 6.39019344e-02 
359 1210.61 8.24607249e+00 6.47404921e-02 
358 1212.19 8.21852807e+00 7.58849572e-02 
357 1213.78 8.35242216e+00 8.67641927e-02 
356 1215.37 8.28676999e+00 6.67767710e-02 
355 1216.95 8.32963441e+00 7.42851984e-02 
354 1218.53 8.27636022e+00 7.06309387e-02 
353 1220.11 8.34894090e+00 7.02814944e-02 
352 1221.69 8.32336775e+00 6.18629914e-02 
351 1223.27 8.37212614e+00 7.05297486e-02 
350 1224.84 8.34958579e+00 6.85643597e-02 
349 1226.42 8.38971128e+00 6.79149774e-02 
348 1227.99 8.35989045e+00 7.12532396e-02 
347 1229.56 8.48961844e+00 7.96126548e-02 
346 1231.13 8.41138038e+00 7.60310223e-02 
345 1232.70 8.48844392e+00 8.21160035e-02 
344 1234.27 8.44927111e+00 8.27809931e-02 
343 1235.84 8.46457677e+00 7.69701687e-02 
342 1237.40 8.39049778e+00 6.89692257e-02 
341 1238.96 8.38327470e+00 7.36737225e-02 
340 1240.52 8.23130802e+00 6.35467815e-02 
339 1242.08 8.34997345e+00 6.49259518e-02 
338 1243.64 8.31708682e+00 6.28158224e-02 
337 1245.20 8.36044840e+00 6.83528906e-02 
336 1246.75 8.33428148e+00 5.91905339e-02 
335 1248.31 8.39647456e+00 5.35913496e-02 
334 1249.86 8.32606627e+00 5.01391243e-02 
333 1251.41 8.34239106e+00 5.61967112e-02 
332 1252.96 8.25285043e+00 4.34913149e-02 
331 1254.51 8.27713535e+00 4.51719093e-02 
330 1256.06 8.20043706e+00 3.11813308e-02 
329 1257.61 8.15721871e+00 4.02918681e-02 
328 1259.15 8.05954853e+00 7.01052399e-02 
327 1260.69 8.02188196e+00 9.73038199e-02 
326 1262.23 7.91612075e+00 1.34819930e-01 
325 1263.77 7.91114116e+00 1.53791652e-01 
324 1265.31 7.76296295e+00 1.94172846e-01 
323 1266.85 7.80898848e+00 1.97597580e-01 
322 1268.39 7.85045928e+00 1.79436347e-01 
321 1269.92 7.96171034e+00 1.42824056e-01 
320 1271.46 8.08239884e+00 8.73881209e-02 
319 1272.99 8.10594819e+00 4.85869120e-02 
318 1274.52 8.07888878e+00 3.64599512e-02 
317 1276.05 8.14138660e+00 3.63613678e-02 
316 1277.58 7.99390667e+00 3.18011468e-02 
315 1279.10 7.85715023e+00 4.78145028e-02 
314 1280.63 7.81854392e+00 5.54400036e-02 
313 1282.15 7.82102520e+00 6.50211933e-02 
312 1283.68 7.91317635e+00 6.30858061e-02 
311 1285.20 8.07763759e+00 7.13681743e-02 
310 1286.72 8.04777422e+00 6.16843505e-02 
309 1288.24 8.06924644e+00 6.76301546e-02 
308 1289.75 7.95938523e+00 6.47994148e-02 
307 1291.27 7.98934974e+00 7.32470966e-02 
306 1292.78 8.03645093e+00 7.25278868e-02 
305 1294.30 8.05224454e+00 6.75490648e-02 
304 1295.81 7.97720336e+00 6.90189448e-02 
303 1297.32 7.98497859e+00 6.68466791e-02 
302 1298.83 7.93827767e+00 5.29560802e-02 
301 1300.34 7.90829349e+00 5.02467243e-02 
300 1301.85 7.86330514e+00 5.23070314e-02 
299 1303.35 7.82720206e+00 5.29869627e-02 
298 1304.86 7.75237149e+00 3.33995911e-02 
297 1306.36 7.73735389e+00 3.13348329e-02 
296 1307.86 7.67021358e+00 2.74697332e-02 
295 1309.36 7.57617582e+00 2.90012253e-02 
294 1310.86 7.50178365e+00 2.20420530e-02 
293 1312.36 7.43649547e+00 2.65370478e-02 
292 1313.86 7.38053799e+00 2.25071445e-02 
291 1315.36 7.39099035e+00 2.17099553e-02 
290 1316.85 7.33603115e+00 3.03715804e-02 
289 1318.34 7.31606287e+00 3.46583030e-02 
288 1319.84 7.27235299e+00 4.63453586e-02 
287 1321.33 7.28093332e+00 4.89580695e-02 
286 1322.82 7.22736218e+00 4.03961003e-02 
285 1324.30 7.23674462e+00 4.25074605e-02 
284 1325.79 7.11945993e+00 4.88340529e-02 
283 1327.28 7.02178055e+00 7.05089831e-02 
282 1328.76 6.86261857e+00 1.05776722e-01 
281 1330.25 6.80384325e+00 1.15818478e-01 
280 1331.73 6.73546056e+00 1.14698774e-01 
279 1333.21 6.74185267e+00 1.10507283e-01 
278 1334.69 6.72080232e+00 9.69224400e-02 
277 1336.17 6.67306187e+00 9.13398789e-02 
276 1337.65 6.61878327e+00 9.38909172e-02 
275 1339.12 6.54455739e+00 8.10042879e-02 
274 1340.60 6.47989372e+00 1.01116509e-01 
273 1342.07 6.42531285e+00 1.17262409e-01 
272 1343.55 6.26115258e+00 1.52580181e-01 
271 1345.02 5.92784638e+00 2.17477269e-01 
270 1346.49 5.68692453e+00 2.55729339e-01 
269 1347.96 5.42568185e+00 3.06868296e-01 
268 1349.43 5.12905934e+00 3.64829976e-01 
267 1350.89 4.81380183e+00 4.25861205e-01 
266 1352.36 4.37659623e+00 4.94619353e-01 
265 1353.82 4.06999349e+00 5.30153283e-01 
264 1355.29 3.77005898e+00 5.82323403e-01 
263 1356.75 3.56023379e+00 6.05722274e-01 
262 1358.21 3.20811082e+00 6.37358204e-01 
261 1359.67 2.91092751e+00 6.57944545e-01 
260 1361.13 2.73765869e+00 6.66234445e-01 
259 1362.59 2.69842358e+00 6.44206454e-01 
258 1364.04 2.83380806e+00 6.35813889e-01 
257 1365.50 2.80934019e+00 6.42729717e-01 
256 1366.95 2.82073720e+00 6.44300236e-01 
255 1368.41 2.72071875e+00 6.55630044e-01 
254 1369.86 2.76778914e+00 6.30727336e-01 
253 1371.31 2.91494318e+00 5.71258089e-01 
252 1372.76 2.94225303e+00 5.06142061e-01 
251 1374.21 3.01304909e+00 4.38943241e-01 
250 1375.65 2.89285420e+00 3.90018550e-01 
249 1377.10 2.60603786e+00 3.67067079e-01 
248 1378.55 2.27647235e+00 3.71266447e-01 
247 1379.99 1.92490913e+00 3.62912831e-01 
246 1381.43 1.77981212e+00 3.93949357e-01 
245 1382.87 1.83551542e+00 4.02471481e-01 
244 1384.32 2.00858011e+00 3.93315536e-01 
243 1385.75 2.24283239e+00 3.68345701e-01 
242 1387.19 2.51034444e+00 3.32486904e-01 
241 1388.63 2.59032058e+00 3.07591908e-01 
240 1390.07 2.64429136e+00 3.13109578e-01 
239 1391.50 2.61635906e+00 3.41767943e-01 
238 1392.94 2.34757191e+00 3.84599436e-01 
237 1394.37 2.42464528e+00 3.75702142e-01 
236 1395.80 2.60923398e+00 3.76576754e-01 
235 1397.23 2.53872332e+00 3.85301347e-01 
234 1398.66 2.69755318e+00 3.76058840e-01 
233 1400.09 2.82821163e+00 3.85836815e-01 
232 1401.52 2.71527701e+00 4.12542181e-01 
231 1402.94 2.90734150e+00 3.89513592e-01 
230 1404.37 2.99812142e+00 3.87292608e-01 
229 1405.79 2.92099500e+00 3.94749486e-01 
228 1407.22 3.01508979e+00 3.89158976e-01 
227 1408.64 3.17057217e+00 3.65567441e-01 
226 1410.06 3.34223951e+00 3.39828016e-01 
225 1411.48 3.35688751e+00 3.37143686e-01 
224 1412.90 3.50333602e+00 3.13896487e-01 
223 1414.32 3.57293302e+00 2.93523694e-01 
222 1415.73 3.55184499e+00 3.14181821e-01 
221 1417.15 3.62905411e+00 3.04205789e-01 
220 1418.56 3.73350979e+00 2.96315247e-01 
219 1419.98 3.68573487e+00 2.90953776e-01 
218 1421.39 3.77398273e+00 2.72738046e-01 
217 1422.80 3.87697874e+00 2.32921122e-01 
216 1424.21 3.90806972e+00 2.42243018e-01 
215 1425.62 3.89989548e+00 2.38184012e-01 
214 1427.03 3.97247575e+00 2.25345798e-01 
213 1428.44 3.83037400e+00 2.47629716e-01 
212 1429.84 3.70553717e+00 2.72968972e-01 
211 1431.25 3.67845057e+00 2.62961100e-01 
210 1432.65 3.65525358e+00 2.85007513e-01 
209 1434.06 3.69716003e+00 2.80780298e-01 
208 1435.46 3.79951454e+00 2.76218716e-01 
207 1436.86 3.82191892e+00 2.63802204e-01 
206 1438.26 3.84911288e+00 2.52238283e-01 
205 1439.66 3.86449635e+00 2.32035415e-01 
204 1441.05 3.96916477e+00 2.06130912e-01 
203 1442.45 3.88811548e+00 2.07676726e-01 
202 1443.85 3.91135920e+00 2.04584520e-01 
201 1445.24 3.98396370e+00 1.78721292e-01 
200 1446.64 4.02491844e+00 1.79540895e-01 
199 1448.03 4.00488095e+00 1.83175350e-01 
198 1449.42 4.09296132e+00 1.75412395e-01 
197 1450.81 4.09304023e+00 1.60322831e-01 
196 1452.20 4.11203314e+00 1.43586634e-01 
195 1453.59 4.24533499e+00 1.00089945e-01 
194 1454.97 4.35598448e+00 7.53458866e-02 
193 1456.36 4.35728514e+00 6.81654661e-02 
192 1457.75 4.39553086e+00 7.30352579e-02 
191 1459.13 4.35639111e+00 8.04473427e-02 
190 1460.51 4.33924832e+00 9.16656526e-02 
189 1461.90 4.21624979e+00 1.03493405e-01 
188 1463.28 4.18353360e+00 1.22458174e-01 
187 1464.66 4.10632133e+00 1.30250932e-01 
186 1466.04 4.13224494e+00 1.34812526e-01 
185 1467.41 4.02758549e+00 1.55375633e-01 
184 1468.79 3.98820210e+00 1.56360709e-01 
183 1470.17 3.93718070e+00 1.53880874e-01 
182 1471.54 3.98377390e+00 1.49106137e-01 
181 1472.92 4.03004412e+00 1.26608289e-01 
180 1474.29 4.11637305e+00 1.10998756e-01 
179 1475.66 4.10418512e+00 1.01242965e-01 
178 1477.03 4.07108781e+00 1.16115543e-01 
177 1478.40 4.03136100e+00 1.18048735e-01 
176 1479.77 4.07746167e+00 1.07418204e-01 
175 1481.14 4.06685056e+00 9.07754119e-02 
174 1482.51 4.14445193e+00 8.23186041e-02 
173 1483.87 4.08975635e+00 7.04420199e-02 
172 1485.24 4.05381549e+00 7.21075419e-02 
171 1486.60 4.00060443e+00 6.34122701e-02 
170 1487.96 4.04600983e+00 6.16603856e-02 
169 1489.32 4.01957646e+00 4.15396591e-02 
168 1490.68 4.15396687e+00 3.51612234e-02 
167 1492.04 4.14397820e+00 3.11782142e-02 
166 1493.40 4.17590102e+00 3.17110096e-02 
165 1494.76 4.13062778e+00 3.99179306e-02 
164 1496.12 4.16015205e+00 2.83791570e-02 
163 1497.47 4.12344772e+00 2.63654000e-02 
162 1498.83 4.18918770e+00 2.69283155e-02 
161 1500.18 4.04948948e+00 2.41839266e-02 
160 1501.53 3.98112012e+00 1.62567721e-02 
159 1502.89 3.86519497e+00 1.74206196e-02 
158 1504.24 3.87836930e+00 1.43208671e-02 
157 1505.59 3.90487975e+00 2.32447635e-02 
156 1506.93 4.01680588e+00 1.90622290e-02 
155 1508.28 4.03411956e+00 2.29996667e-02 
154 1509.63 4.06741955e+00 2.45127888e-02 
153 1510.97 4.01378431e+00 2.81708779e-02 
152 1512.32 4.05811725e+00 2.75909833e-02 
151 1513.66 3.98402152e+00 3.29946717e-02 
150 1515.00 4.02769932e+00 2.83002350e-02 
149 1516.34 3.99394210e+00 3.38862230e-02 
148 1517.69 4.01471742e+00 2.62666790e-02 
147 1519.02 3.95200015e+00 2.53624347e-02 
146 1520.36 3.97113676e+00 2.54964100e-02 
145 1521.70 3.91903630e+00 3.52188660e-02 
144 1523.04 3.98333237e+00 3.64692894e-02 
143 1524.37 3.93826357e+00 4.39494697e-02 
142 1525.71 3.98439193e+00 4.66526439e-02 
141 1527.04 3.90874986e+00 4.59277214e-02 
140 1528.37 3.93937510e+00 3.72555236e-02 
139 1529.70 3.85877501e+00 3.65934439e-02 
138 1531.03 3.89717629e+00 3.24467309e-02 
137 1532.36 3.84061102e+00 3.34272216e-02 
136 1533.69 3.87636988e+00 2.95446438e-02 
135 1535.02 3.79580454e+00 3.43976613e-02 
134 1536.34 3.82322224e+00 3.19814640e-02 
133 1537.67 3.75172277e+00 4.02294259e-02 
132 1538.99 3.79846958e+00 3.98977125e-02 
131 1540.31 3.74721882e+00 3.96278486e-02 
130 1541.64 3.78685639e+00 4.11836981e-02 
129 1542.96 3.75566946e+00 4.33840956e-02 
128 1544.28 3.78848075e+00 4.42725108e-02 
127 1545.60 3.70825553e+00 4.58853303e-02 
126 1546.91 3.75404931e+00 3.61702875e-02 
125 1548.23 3.66846212e+00 3.40332088e-02 
124 1549.55 3.69525002e+00 4.06540861e-02 
123 1550.86 3.62092727e+00 4.60790192e-02 
122 1552.18 3.64323035e+00 4.16903466e-02 
121 1553.49 3.58338413e+00 4.24411010e-02 
120 1554.80 3.64224271e+00 3.32194622e-02 
119 1556.11 3.57517005e+00 3.36083756e-02 
118 1557.42 3.61511513e+00 3.41388904e-02 
117 1558.73 3.54750029e+00 3.66640701e-02 
116 1560.04 3.56794004e+00 3.56782284e-02 
115 1561.34 3.48394261e+00 3.63364408e-02 
114 1562.65 3.53598477e+00 3.29121319e-02 
113 1563.95 3.45992339e+00 3.52948484e-02 
112 1565.26 3.52150021e+00 3.15169568e-02 
111 1566.56 3.40659058e+00 2.61482348e-02 
110 1567.86 3.43150641e+00 1.58904767e-02 
109 1569.16 3.33115829e+00 2.26008665e-02 
108 1570.46 3.32780171e+00 3.32187068e-02 
107 1571.76 3.22473008e+00 2.68762888e-02 
106 1573.05 3.20598945e+00 2.27538046e-02 
105 1574.35 3.09759513e+00 1.93104062e-02 
104 1575.64 3.12498011e+00 1.40984354e-02 
103 1576.94 3.08474679e+00 1.54107475e-02 
102 1578.23 3.14815276e+00 1.44553644e-02 
101 1579.52 3.11559268e+00 1.28531312e-02 
100 1580.81 3.18512146e+00 1.45605791e-02 
99 1582.10 3.12073373e+00 1.74781459e-02 
98 1583.39 3.17901585e+00 1.84957324e-02 
97 1584.68 3.11013484e+00 2.09517344e-02 
96 1585.97 3.10075524e+00 1.95031985e-02 
95 1587.25 2.99741463e+00 2.51232575e-02 
94 1588.54 3.01271776e+00 1.97189362e-02 
93 1589.82 2.95090735e+00 2.09302769e-02 
92 1591.10 3.04832088e+00 2.18226597e-02 
91 1592.38 3.01442185e+00 1.91777997e-02 
90 1593.66 3.07523342e+00 1.76766386e-02 
89 1594.94 2.99718761e+00 2.56274137e-02 
88 1596.22 3.03283569e+00 1.24163142e-02 
87 1597.50 2.93440178e+00 1.33034061e-02 
86 1598.77 2.95214987e+00 2.20726285e-02 
85 1600.05 2.85747458e+00 2.55878024e-02 
84 1601.32 2.88207936e+00 3.34035895e-02 
83 1602.59 2.80138027e+00 2.81557336e-02 
82 1603.86 2.86310693e+00 3.01729041e-02 
81 1605.13 2.75046107e+00 2.50713771e-02 
80 1606.40 2.80812276e+00 2.77882756e-02 
79 1607.67 2.70958637e+00 2.15000765e-02 
78 1608.94 2.75294734e+00 2.35221136e-02 
77 1610.20 2.68356412e+00 1.37054929e-02 
76 1611.47 2.74353391e+00 1.72872138e-02 
75 1612.73 2.67119744e+00 1.45634076e-02 
74 1614.00 2.71349642e+00 1.52192384e-02 
73 1615.26 2.63432186e+00 2.13983747e-02 
72 1616.52 2.65514057e+00 1.76055127e-02 
71 1617.78 2.55460944e+00 2.63654087e-02 
70 1619.03 2.59458174e+00 1.97591767e-02 
69 1620.29 2.52906905e+00 2.25787538e-02 
68 1621.55 2.59026742e+00 2.02531032e-02 
67 1622.80 2.52808411e+00 2.46041078e-02 
66 1624.06 2.58889281e+00 2.64063781e-02 
65 1625.31 2.48890842e+00 2.67252831e-02 
64 1626.56 2.55090083e+00 2.17245741e-02 
63 1627.81 2.45102055e+00 2.34511206e-02 
