% C0 (TOA Count Rate, /ms) for 4STAR NIR spectrometer (512 channels) derived from (SEE Original files for sources) and recorded on 2017-06-15 00:12:39.
% Langley at MLO and airborne Data outside 2.0x the STD of 501 nm Langley residuals were screened out. 
% Including high Altitude rate spectra, matched to splined stratospheric AOD measured at MLO.
% Averages of c0 from multiple days including: , infl-ig-ht, high- a-lt, high- a-lt, high- a-lt. See the list of files below
% 20160825_NIR_C0_refined_Langley_ORACLES_transit2.dat
% 20160902_NIR_C0_refined_high_alt_low_m.dat
% 20160904_NIR_C0_refined_high_alt_low_m.dat
% 20160831_NIR_C0_refined_high_alt_low_m.dat
Pix Wavelength C0 C0err
511 949.79 5.42891961e+00 8.53300871e-02 
510 949.79 5.58705425e+00 8.61986232e-02 
509 951.68 5.98930840e+00 7.56312537e-02 
508 953.57 6.03685191e+00 6.84380119e-02 
507 955.46 6.51703694e+00 6.19327544e-02 
506 957.34 6.61112230e+00 5.62235721e-02 
505 959.22 7.08511270e+00 4.82697197e-02 
504 961.10 7.15673962e+00 3.79660016e-02 
503 962.98 7.59197377e+00 2.68763461e-02 
502 964.85 7.56968625e+00 1.85770254e-02 
501 966.72 8.08265513e+00 2.04645783e-02 
500 968.59 8.09046188e+00 2.50471863e-02 
499 970.45 8.48847616e+00 3.05869699e-02 
498 972.32 8.43219812e+00 2.23619981e-02 
497 974.18 8.76447797e+00 1.81305252e-02 
496 976.04 8.67435162e+00 2.47196032e-02 
495 977.89 9.01495683e+00 3.36963196e-02 
494 979.74 8.90416779e+00 3.78738434e-02 
493 981.59 9.19232117e+00 4.91304479e-02 
492 983.44 9.06243032e+00 5.31224061e-02 
491 985.29 9.31506538e+00 5.87059032e-02 
490 987.13 9.10914023e+00 6.11640362e-02 
489 988.97 9.34607573e+00 6.52452906e-02 
488 990.81 9.15057054e+00 6.49534914e-02 
487 992.65 9.33499560e+00 6.95338301e-02 
486 994.48 9.13290791e+00 6.85054178e-02 
485 996.31 9.29029408e+00 6.53352936e-02 
484 998.14 9.03615872e+00 6.25394080e-02 
483 999.97 9.18217337e+00 6.92854089e-02 
482 1001.79 8.90219136e+00 6.42478652e-02 
481 1003.62 8.97887634e+00 6.69041795e-02 
480 1005.44 8.75640621e+00 6.83120223e-02 
479 1007.25 8.99543458e+00 6.88988717e-02 
478 1009.07 8.77349097e+00 6.91768504e-02 
477 1010.88 8.95055476e+00 6.52676831e-02 
476 1012.69 8.67101745e+00 6.51776031e-02 
475 1014.50 8.79905037e+00 6.72235449e-02 
474 1016.31 8.57978187e+00 6.64814177e-02 
473 1018.11 8.72698652e+00 7.07187094e-02 
472 1019.91 8.47156422e+00 6.47093053e-02 
471 1021.71 8.63606548e+00 7.04971759e-02 
470 1023.51 8.40862185e+00 6.37418905e-02 
469 1025.30 8.58339027e+00 6.81745879e-02 
468 1027.09 8.47109692e+00 6.86528108e-02 
467 1028.88 8.62149888e+00 7.35680423e-02 
466 1030.67 8.46796503e+00 7.00121326e-02 
465 1032.46 8.64639052e+00 7.28253514e-02 
464 1034.24 8.48932232e+00 7.81924595e-02 
463 1036.02 8.68995871e+00 7.66665195e-02 
462 1037.80 8.55350243e+00 7.54109732e-02 
461 1039.58 8.76507617e+00 8.41151519e-02 
460 1041.35 8.60506892e+00 7.83091589e-02 
459 1043.12 8.76591355e+00 8.38076245e-02 
458 1044.89 8.68028641e+00 7.95211712e-02 
457 1046.66 8.91453874e+00 8.74313505e-02 
456 1048.43 8.85197468e+00 8.13496248e-02 
455 1050.19 9.08250101e+00 8.06483228e-02 
454 1051.95 8.94423475e+00 7.67831022e-02 
453 1053.71 9.20442359e+00 8.27522536e-02 
452 1055.47 9.03764526e+00 7.98375890e-02 
451 1057.23 9.17622888e+00 7.91265360e-02 
450 1058.98 9.02444573e+00 7.53330527e-02 
449 1060.73 9.18922455e+00 8.09158758e-02 
448 1062.48 8.97988201e+00 7.35428799e-02 
447 1064.23 9.10887942e+00 7.73119722e-02 
446 1065.97 8.81253574e+00 7.15269387e-02 
445 1067.71 8.86961808e+00 7.04157439e-02 
444 1069.46 8.66510109e+00 6.53921010e-02 
443 1071.19 8.78983386e+00 7.17852828e-02 
442 1072.93 8.63892889e+00 7.36554372e-02 
441 1074.67 8.72627569e+00 6.98723357e-02 
440 1076.40 8.52494577e+00 6.85602209e-02 
439 1078.13 8.55989998e+00 6.46570190e-02 
438 1079.86 8.32373104e+00 6.30387267e-02 
437 1081.58 8.40116000e+00 6.18113257e-02 
436 1083.31 8.28268497e+00 5.45106275e-02 
435 1085.03 8.47646506e+00 6.45261509e-02 
434 1086.75 8.41125555e+00 6.63582063e-02 
433 1088.47 8.57887969e+00 6.79497831e-02 
432 1090.19 8.47730783e+00 5.87442194e-02 
431 1091.90 8.59988634e+00 6.19437628e-02 
430 1093.61 8.46846837e+00 5.70252264e-02 
429 1095.33 8.69232429e+00 6.00456614e-02 
428 1097.03 8.72615774e+00 5.20623904e-02 
427 1098.74 8.98800781e+00 3.90079694e-02 
426 1100.45 9.01446386e+00 4.12018602e-02 
425 1102.15 9.31217955e+00 4.05847846e-02 
424 1103.85 9.33134071e+00 3.39896774e-02 
423 1105.55 9.61400499e+00 3.33631142e-02 
422 1107.25 9.56104470e+00 3.49889973e-02 
421 1108.94 9.73976305e+00 3.55476070e-02 
420 1110.64 9.56747925e+00 7.41778590e-02 
419 1112.33 9.61403282e+00 1.39681480e-01 
418 1114.02 9.28293306e+00 2.18312469e-01 
417 1115.70 9.26418807e+00 2.72307051e-01 
416 1117.39 9.00581034e+00 3.11269863e-01 
415 1119.07 8.98038162e+00 3.55404837e-01 
414 1120.76 8.83317439e+00 3.76553562e-01 
413 1122.44 8.91195902e+00 4.15647463e-01 
412 1124.12 8.84897395e+00 4.08991232e-01 
411 1125.79 9.04029061e+00 3.95656369e-01 
410 1127.47 9.16330222e+00 3.32714742e-01 
409 1129.14 9.43728570e+00 2.95170200e-01 
408 1130.81 9.07575066e+00 3.64959659e-01 
407 1132.48 9.01348703e+00 4.00572345e-01 
406 1134.15 8.85488025e+00 3.96969166e-01 
405 1135.81 9.14061655e+00 3.06502466e-01 
404 1137.48 9.48341465e+00 1.87643516e-01 
403 1139.14 9.70059185e+00 1.67454690e-01 
402 1140.80 9.44235791e+00 1.96120095e-01 
401 1142.46 9.42970647e+00 2.42372905e-01 
400 1144.12 9.18989265e+00 2.71595827e-01 
399 1145.77 9.24550093e+00 2.76242845e-01 
398 1147.43 9.21290400e+00 2.42718671e-01 
397 1149.08 9.37159979e+00 2.11874567e-01 
396 1150.73 9.31949084e+00 1.99468084e-01 
395 1152.38 9.54521568e+00 1.79917411e-01 
394 1154.02 9.49052251e+00 1.42852364e-01 
393 1155.67 9.68659109e+00 1.08758042e-01 
392 1157.31 9.51583232e+00 8.72032736e-02 
391 1158.95 9.60099715e+00 7.90875446e-02 
390 1160.59 9.50028804e+00 6.97861010e-02 
389 1162.23 9.63425563e+00 5.90421785e-02 
388 1163.87 9.50946387e+00 4.54123955e-02 
387 1165.50 9.57668684e+00 4.42258007e-02 
386 1167.13 9.45863764e+00 3.61090579e-02 
385 1168.76 9.56200403e+00 3.28492883e-02 
384 1170.39 9.43647536e+00 3.86083503e-02 
383 1172.02 9.42491137e+00 3.65937897e-02 
382 1173.65 9.22344297e+00 3.33262508e-02 
381 1175.27 9.21480134e+00 2.90085742e-02 
380 1176.90 9.08682491e+00 2.55898972e-02 
379 1178.52 9.06387258e+00 2.63951074e-02 
378 1180.14 8.84032573e+00 2.48110353e-02 
377 1181.75 8.84104570e+00 2.91916623e-02 
376 1183.37 8.64727658e+00 2.91003048e-02 
375 1184.99 8.67389402e+00 2.87281408e-02 
374 1186.60 8.53111117e+00 3.21702559e-02 
373 1188.21 8.48618256e+00 3.11364321e-02 
372 1189.82 8.38498649e+00 2.58818313e-02 
371 1191.43 8.58030965e+00 3.69853138e-02 
370 1193.04 8.47180807e+00 3.57613556e-02 
369 1194.64 8.46809237e+00 3.60892169e-02 
368 1196.24 8.30490988e+00 2.64554464e-02 
367 1197.85 8.36019921e+00 2.20089579e-02 
366 1199.45 8.24483174e+00 3.12873587e-02 
365 1201.05 8.32776488e+00 3.01701781e-02 
364 1202.64 8.23019401e+00 2.43466467e-02 
363 1204.24 8.24510457e+00 2.59454270e-02 
362 1205.83 8.16372762e+00 3.57653663e-02 
361 1207.43 8.18170104e+00 4.29674617e-02 
360 1209.02 8.14205888e+00 3.52280548e-02 
359 1210.61 8.27093471e+00 3.83089398e-02 
358 1212.19 8.24816572e+00 4.26860879e-02 
357 1213.78 8.38591506e+00 5.05852795e-02 
356 1215.37 8.31246844e+00 3.92782268e-02 
355 1216.95 8.35757391e+00 4.64070923e-02 
354 1218.53 8.30157362e+00 4.91277251e-02 
353 1220.11 8.37313396e+00 5.18069213e-02 
352 1221.69 8.34483369e+00 4.50643637e-02 
351 1223.27 8.39800446e+00 4.65619007e-02 
350 1224.84 8.37160929e+00 5.50865782e-02 
349 1226.42 8.41308391e+00 5.00805489e-02 
348 1227.99 8.38318835e+00 5.61315448e-02 
347 1229.56 8.51789111e+00 5.58743506e-02 
346 1231.13 8.43952870e+00 4.92487276e-02 
345 1232.70 8.51806041e+00 5.60637160e-02 
344 1234.27 8.47907437e+00 5.67041823e-02 
343 1235.84 8.49194462e+00 5.39062484e-02 
342 1237.40 8.41358328e+00 5.28148027e-02 
341 1238.96 8.40899068e+00 5.31821851e-02 
340 1240.52 8.25283985e+00 4.78900799e-02 
339 1242.08 8.37215681e+00 4.83717827e-02 
338 1243.64 8.33751015e+00 4.98031635e-02 
337 1245.20 8.38420598e+00 4.96655877e-02 
336 1246.75 8.35628026e+00 3.80138437e-02 
335 1248.31 8.41523136e+00 3.85217771e-02 
334 1249.86 8.34474381e+00 3.20349758e-02 
333 1251.41 8.36116629e+00 4.31358056e-02 
332 1252.96 8.26582132e+00 3.74214489e-02 
331 1254.51 8.28994688e+00 4.03290506e-02 
330 1256.06 8.20312892e+00 3.53278884e-02 
329 1257.61 8.15899869e+00 4.62974878e-02 
328 1259.15 8.04338569e+00 6.93643368e-02 
327 1260.69 7.99886740e+00 9.53567438e-02 
326 1262.23 7.87728695e+00 1.19085923e-01 
325 1263.77 7.86520142e+00 1.32159360e-01 
324 1265.31 7.70322161e+00 1.62718378e-01 
323 1266.85 7.74363769e+00 1.53584604e-01 
322 1268.39 7.78989194e+00 1.35918571e-01 
321 1269.92 7.91395376e+00 1.09515639e-01 
320 1271.46 8.05172067e+00 6.25132997e-02 
319 1272.99 8.09493128e+00 4.83573701e-02 
318 1274.52 8.07555995e+00 4.12136317e-02 
317 1276.05 8.14809537e+00 3.82467671e-02 
316 1277.58 7.99957916e+00 3.36734684e-02 
315 1279.10 7.87310392e+00 3.67627442e-02 
314 1280.63 7.83717610e+00 4.22343318e-02 
313 1282.15 7.84257045e+00 5.04217812e-02 
312 1283.68 7.93322278e+00 5.12578196e-02 
311 1285.20 8.10237087e+00 5.20863336e-02 
310 1286.72 8.06787073e+00 4.87935667e-02 
309 1288.24 8.09384555e+00 4.54350287e-02 
308 1289.75 7.98152259e+00 4.82859531e-02 
307 1291.27 8.01629960e+00 4.80785876e-02 
306 1292.78 8.06250557e+00 4.98808388e-02 
305 1294.30 8.07733664e+00 4.34328561e-02 
304 1295.81 8.00352930e+00 4.16067147e-02 
303 1297.32 8.01004578e+00 4.20580402e-02 
302 1298.83 7.95782119e+00 3.45369665e-02 
301 1300.34 7.92802388e+00 2.77678941e-02 
300 1301.85 7.88417822e+00 2.72665282e-02 
299 1303.35 7.84841922e+00 2.72464870e-02 
298 1304.86 7.76534758e+00 1.91010486e-02 
297 1306.36 7.74913727e+00 1.95833703e-02 
296 1307.86 7.67928943e+00 2.13769679e-02 
295 1309.36 7.58633355e+00 2.08222001e-02 
294 1310.86 7.50976251e+00 1.49461499e-02 
293 1312.36 7.44788667e+00 8.59591077e-03 
292 1313.86 7.38887096e+00 1.45776001e-02 
291 1315.36 7.39712989e+00 1.94200057e-02 
290 1316.85 7.34525942e+00 2.57326630e-02 
289 1318.34 7.32477801e+00 3.30944058e-02 
288 1319.84 7.28251649e+00 4.66391632e-02 
287 1321.33 7.29319506e+00 4.68350593e-02 
286 1322.82 7.23649422e+00 4.02471496e-02 
285 1324.30 7.24322263e+00 4.61455868e-02 
284 1325.79 7.11918666e+00 5.63842926e-02 
283 1327.28 7.01814671e+00 8.08743274e-02 
282 1328.76 6.85158244e+00 1.18769998e-01 
281 1330.25 6.79311841e+00 1.30837347e-01 
280 1331.73 6.72728001e+00 1.30747604e-01 
279 1333.21 6.73092259e+00 1.24442896e-01 
278 1334.69 6.70988478e+00 1.08308178e-01 
277 1336.17 6.66432967e+00 1.03032146e-01 
276 1337.65 6.60725496e+00 1.04249669e-01 
275 1339.12 6.53636123e+00 9.11102595e-02 
274 1340.60 6.46702389e+00 1.11930850e-01 
273 1342.07 6.41747254e+00 1.33881142e-01 
272 1343.55 6.24328677e+00 1.70038328e-01 
271 1345.02 5.89934009e+00 2.40092536e-01 
270 1346.49 5.65130803e+00 2.80606056e-01 
269 1347.96 5.38987705e+00 3.42068671e-01 
268 1349.43 5.07970205e+00 4.01530741e-01 
267 1350.89 4.76356515e+00 4.74326390e-01 
266 1352.36 4.31221196e+00 5.46408430e-01 
265 1353.82 4.00220609e+00 5.86613830e-01 
264 1355.29 3.68723781e+00 6.37499093e-01 
263 1356.75 3.46917093e+00 6.58723266e-01 
262 1358.21 3.10598816e+00 6.87100467e-01 
261 1359.67 2.80539993e+00 7.09187958e-01 
260 1361.13 2.62985611e+00 7.17180919e-01 
259 1362.59 2.59132583e+00 6.90557563e-01 
258 1364.04 2.71943417e+00 6.72163042e-01 
257 1365.50 2.69848132e+00 6.84741357e-01 
256 1366.95 2.70802282e+00 6.84689835e-01 
255 1368.41 2.60927693e+00 7.00242207e-01 
254 1369.86 2.65606959e+00 6.68740795e-01 
253 1371.31 2.81595720e+00 6.08106003e-01 
252 1372.76 2.85441776e+00 5.38645969e-01 
251 1374.21 2.93890430e+00 4.69302915e-01 
250 1375.65 2.82586465e+00 4.15814820e-01 
249 1377.10 2.54408020e+00 3.92503904e-01 
248 1378.55 2.20932814e+00 3.92083409e-01 
247 1379.99 1.86457594e+00 3.89024859e-01 
246 1381.43 1.71335873e+00 4.21292977e-01 
245 1382.87 1.76901724e+00 4.31853761e-01 
244 1384.32 1.94368839e+00 4.22125471e-01 
243 1385.75 2.18363818e+00 3.96919438e-01 
242 1387.19 2.45742700e+00 3.58787337e-01 
241 1388.63 2.54568874e+00 3.35961854e-01 
240 1390.07 2.59251053e+00 3.35919308e-01 
239 1391.50 2.55955067e+00 3.66368410e-01 
238 1392.94 2.28043713e+00 4.08870527e-01 
237 1394.37 2.35924172e+00 3.99606428e-01 
236 1395.80 2.54454235e+00 4.01472316e-01 
235 1397.23 2.47674423e+00 4.15130643e-01 
234 1398.66 2.63804302e+00 4.06141113e-01 
233 1400.09 2.76704709e+00 4.16596597e-01 
232 1401.52 2.64863932e+00 4.44204378e-01 
231 1402.94 2.84959212e+00 4.24336158e-01 
230 1404.37 2.93947102e+00 4.20786914e-01 
229 1405.79 2.85964149e+00 4.27404404e-01 
228 1407.22 2.95232051e+00 4.19117792e-01 
227 1408.64 3.11412248e+00 3.96159431e-01 
226 1410.06 3.29389154e+00 3.72013343e-01 
225 1411.48 3.31049881e+00 3.70416534e-01 
224 1412.90 3.45645675e+00 3.41648304e-01 
223 1414.32 3.53364111e+00 3.23392209e-01 
222 1415.73 3.50661953e+00 3.43479266e-01 
221 1417.15 3.58518319e+00 3.32501380e-01 
220 1418.56 3.69096334e+00 3.24040582e-01 
219 1419.98 3.64855693e+00 3.21958797e-01 
218 1421.39 3.73959013e+00 3.02151808e-01 
217 1422.80 3.85408343e+00 2.62377014e-01 
216 1424.21 3.87800337e+00 2.68729739e-01 
215 1425.62 3.87196136e+00 2.65405470e-01 
214 1427.03 3.94247798e+00 2.48412018e-01 
213 1428.44 3.78892856e+00 2.65158708e-01 
212 1429.84 3.64995300e+00 2.80628008e-01 
211 1431.25 3.62327979e+00 2.68152857e-01 
210 1432.65 3.59209940e+00 2.85860179e-01 
209 1434.06 3.64222900e+00 2.91548696e-01 
208 1435.46 3.74797304e+00 2.89860071e-01 
207 1436.86 3.77202577e+00 2.76031327e-01 
206 1438.26 3.80496715e+00 2.68029660e-01 
205 1439.66 3.82337860e+00 2.46000228e-01 
204 1441.05 3.93606152e+00 2.22143581e-01 
203 1442.45 3.85699270e+00 2.25939474e-01 
202 1443.85 3.88034461e+00 2.22247015e-01 
201 1445.24 3.95750370e+00 1.94732781e-01 
200 1446.64 3.99809001e+00 1.95400812e-01 
199 1448.03 3.97847587e+00 2.00223430e-01 
198 1449.42 4.06609251e+00 1.90297458e-01 
197 1450.81 4.06896704e+00 1.74378207e-01 
196 1452.20 4.09105702e+00 1.56704107e-01 
195 1453.59 4.23321424e+00 1.11256064e-01 
194 1454.97 4.34910451e+00 8.51691040e-02 
193 1456.36 4.35356894e+00 7.81236633e-02 
192 1457.75 4.39278301e+00 8.40348772e-02 
191 1459.13 4.35867878e+00 9.27046054e-02 
190 1460.51 4.33484285e+00 1.05233400e-01 
189 1461.90 4.21137422e+00 1.18838987e-01 
188 1463.28 4.17027059e+00 1.37193138e-01 
187 1464.66 4.09261894e+00 1.46180379e-01 
186 1466.04 4.11233326e+00 1.46933285e-01 
185 1467.41 4.00618885e+00 1.70694683e-01 
184 1468.79 3.96477796e+00 1.70118462e-01 
183 1470.17 3.91730128e+00 1.70111210e-01 
182 1471.54 3.96253431e+00 1.63205552e-01 
181 1472.92 4.01448732e+00 1.40568315e-01 
180 1474.29 4.10502933e+00 1.24778866e-01 
179 1475.66 4.09624876e+00 1.15095376e-01 
178 1477.03 4.05952068e+00 1.30709997e-01 
177 1478.40 4.02203582e+00 1.34167604e-01 
176 1479.77 4.06535321e+00 1.20031089e-01 
175 1481.14 4.05995654e+00 1.03295937e-01 
174 1482.51 4.13472453e+00 9.16750859e-02 
173 1483.87 4.08455725e+00 8.02240571e-02 
172 1485.24 4.04066150e+00 7.60206943e-02 
171 1486.60 3.98965978e+00 6.75493770e-02 
170 1487.96 4.03369355e+00 6.37029559e-02 
169 1489.32 4.01613677e+00 4.71364826e-02 
168 1490.68 4.14813729e+00 3.77074986e-02 
167 1492.04 4.14439844e+00 3.59851462e-02 
166 1493.40 4.17992650e+00 3.51105998e-02 
165 1494.76 4.14083857e+00 3.78089931e-02 
164 1496.12 4.16680717e+00 2.79027686e-02 
163 1497.47 4.13252105e+00 1.94424794e-02 
162 1498.83 4.19960592e+00 1.55964774e-02 
161 1500.18 4.05861244e+00 1.49986682e-02 
160 1501.53 3.98349913e+00 1.77382582e-02 
159 1502.89 3.86982361e+00 1.61804966e-02 
158 1504.24 3.88180812e+00 1.39503755e-02 
157 1505.59 3.91365802e+00 1.43772831e-02 
156 1506.93 4.02386808e+00 1.23285874e-02 
155 1508.28 4.04356229e+00 1.05298620e-02 
154 1509.63 4.07738033e+00 1.18204074e-02 
153 1510.97 4.02545959e+00 1.22222913e-02 
152 1512.32 4.06828708e+00 1.80419898e-02 
151 1513.66 3.99644041e+00 2.05752064e-02 
150 1515.00 4.03641116e+00 2.37043663e-02 
149 1516.34 4.00666229e+00 2.12684472e-02 
148 1517.69 4.02296607e+00 2.15943639e-02 
147 1519.02 3.96045703e+00 1.95160942e-02 
146 1520.36 3.97888660e+00 2.15952670e-02 
145 1521.70 3.93183298e+00 2.37091736e-02 
144 1523.04 3.99519804e+00 2.88914882e-02 
143 1524.37 3.95416512e+00 2.98275073e-02 
142 1525.71 4.00100804e+00 3.25779894e-02 
141 1527.04 3.92397427e+00 3.55985534e-02 
140 1528.37 3.95080630e+00 3.12966896e-02 
139 1529.70 3.87129517e+00 2.72104847e-02 
138 1531.03 3.90802100e+00 2.48931424e-02 
137 1532.36 3.85235028e+00 2.38977698e-02 
136 1533.69 3.88485542e+00 2.61499319e-02 
135 1535.02 3.80688052e+00 2.75635547e-02 
134 1536.34 3.83076827e+00 3.13709289e-02 
133 1537.67 3.76552189e+00 2.98066692e-02 
132 1538.99 3.81005077e+00 3.50467757e-02 
131 1540.31 3.75920644e+00 3.37016537e-02 
130 1541.64 3.80050435e+00 3.19324713e-02 
129 1542.96 3.77068944e+00 3.17107891e-02 
128 1544.28 3.80344986e+00 3.34601133e-02 
127 1545.60 3.72513807e+00 3.01189328e-02 
126 1546.91 3.76547689e+00 2.95599175e-02 
125 1548.23 3.67943684e+00 2.72283301e-02 
124 1549.55 3.70731317e+00 3.51218378e-02 
123 1550.86 3.63658385e+00 3.45954554e-02 
122 1552.18 3.65556485e+00 3.60995912e-02 
121 1553.49 3.59740578e+00 3.30295383e-02 
120 1554.80 3.65021883e+00 3.23612917e-02 
119 1556.11 3.58451404e+00 3.03967680e-02 
118 1557.42 3.62304099e+00 3.36920880e-02 
117 1558.73 3.55854692e+00 3.12860808e-02 
116 1560.04 3.57924199e+00 2.90807181e-02 
115 1561.34 3.49442459e+00 3.20619671e-02 
114 1562.65 3.54454060e+00 3.09234986e-02 
113 1563.95 3.46992174e+00 3.15360357e-02 
112 1565.26 3.52823705e+00 3.19665151e-02 
111 1566.56 3.41464308e+00 2.18941855e-02 
110 1567.86 3.43218245e+00 1.82655269e-02 
109 1569.16 3.32705633e+00 2.38514504e-02 
108 1570.46 3.31896288e+00 3.08298104e-02 
107 1571.76 3.21899333e+00 2.72710660e-02 
106 1573.05 3.19937032e+00 1.99556525e-02 
105 1574.35 3.09057999e+00 1.30041774e-02 
104 1575.64 3.12144333e+00 1.34769759e-02 
103 1576.94 3.08162349e+00 1.58625876e-02 
102 1578.23 3.14460096e+00 1.39466228e-02 
101 1579.52 3.11547709e+00 1.48385167e-02 
100 1580.81 3.18191065e+00 1.46271058e-02 
99 1582.10 3.12128370e+00 2.01320060e-02 
98 1583.39 3.18115804e+00 2.06283725e-02 
97 1584.68 3.11297243e+00 2.30568979e-02 
96 1585.97 3.10494504e+00 1.97518890e-02 
95 1587.25 3.00496047e+00 2.14935490e-02 
94 1588.54 3.01823751e+00 1.77575481e-02 
93 1589.82 2.95803455e+00 1.56670302e-02 
92 1591.10 3.05383452e+00 2.07919085e-02 
91 1592.38 3.02011693e+00 1.65577043e-02 
90 1593.66 3.08019055e+00 1.58995948e-02 
89 1594.94 3.00618231e+00 1.83390777e-02 
88 1596.22 3.03272959e+00 1.43345070e-02 
87 1597.50 2.93479632e+00 1.53276369e-02 
86 1598.77 2.94387007e+00 1.38768608e-02 
85 1600.05 2.84864082e+00 1.87815114e-02 
84 1601.32 2.86945575e+00 2.06243290e-02 
83 1602.59 2.79116615e+00 1.90124116e-02 
82 1603.86 2.85232498e+00 2.09492004e-02 
81 1605.13 2.74170644e+00 1.80870858e-02 
80 1606.40 2.79748104e+00 1.65713418e-02 
79 1607.67 2.70209716e+00 1.55697171e-02 
78 1608.94 2.74477579e+00 1.71043212e-02 
77 1610.20 2.68025622e+00 1.33231464e-02 
76 1611.47 2.73833038e+00 1.47632025e-02 
75 1612.73 2.67131314e+00 1.68137209e-02 
74 1614.00 2.71275999e+00 1.74704941e-02 
73 1615.26 2.63947246e+00 2.08245692e-02 
72 1616.52 2.65820978e+00 1.87208962e-02 
71 1617.78 2.56264097e+00 2.22892479e-02 
70 1619.03 2.59875946e+00 2.01050004e-02 
69 1620.29 2.53512032e+00 2.08713797e-02 
68 1621.55 2.59489793e+00 2.00990965e-02 
67 1622.80 2.53571203e+00 2.04755526e-02 
66 1624.06 2.59486206e+00 2.63093606e-02 
65 1625.31 2.49610404e+00 2.46402308e-02 
64 1626.56 2.55363827e+00 2.40690490e-02 
63 1627.81 2.45632866e+00 2.33545106e-02 
62 1629.06 2.47893156e+00 1.99050636e-02 
