% C0 (TOA Count Rate, /ms) for 4STAR NIR spectrometer (512 channels) derived from 20160111starsun.mat and recorded on 2016-01-20 12:58:05.
% Data outside 2.0x the STD of 501 nm Langley residuals were screened out.
Pix Wavelength C0 C0err
511 949.79 5.09407910e+00 1.52822373e-01 
510 949.79 5.25186721e+00 1.57556016e-01 
509 951.68 5.64246065e+00 1.69273819e-01 
508 953.57 5.70237778e+00 1.71071333e-01 
507 955.46 6.17789482e+00 1.85336844e-01 
506 957.34 6.29687750e+00 1.88906325e-01 
505 959.22 6.79492661e+00 2.03847798e-01 
504 961.10 6.88895572e+00 2.06668672e-01 
503 962.98 7.34354341e+00 2.20306302e-01 
502 964.85 7.36314673e+00 2.20894402e-01 
501 966.72 7.90075774e+00 2.37022732e-01 
500 968.59 7.95350810e+00 2.38605243e-01 
499 970.45 8.35433556e+00 2.50630067e-01 
498 972.32 8.30526120e+00 2.49157836e-01 
497 974.18 8.63160001e+00 2.58948000e-01 
496 976.04 8.55254698e+00 2.56576409e-01 
495 977.89 8.88082714e+00 2.66424814e-01 
494 979.74 8.80385744e+00 2.64115723e-01 
493 981.59 9.07353393e+00 2.72206018e-01 
492 983.44 8.95989095e+00 2.68796728e-01 
491 985.29 9.20008217e+00 2.76002465e-01 
490 987.13 8.98887233e+00 2.69666170e-01 
489 988.97 9.23054808e+00 2.76916442e-01 
488 990.81 9.02765274e+00 2.70829582e-01 
487 992.65 9.19161971e+00 2.75748591e-01 
486 994.48 9.01134086e+00 2.70340226e-01 
485 996.31 9.16208352e+00 2.74862506e-01 
484 998.14 8.91811288e+00 2.67543386e-01 
483 999.97 9.08641664e+00 2.72592499e-01 
482 1001.79 8.82171988e+00 2.64651596e-01 
481 1003.62 8.90990283e+00 2.67297085e-01 
480 1005.44 8.70396258e+00 2.61118877e-01 
479 1007.25 8.95504194e+00 2.68651258e-01 
478 1009.07 8.76932960e+00 2.63079888e-01 
477 1010.88 8.91966480e+00 2.67589944e-01 
476 1012.69 8.64810640e+00 2.59443192e-01 
475 1014.50 8.76359619e+00 2.62907886e-01 
474 1016.31 8.55094099e+00 2.56528230e-01 
473 1018.11 8.68511072e+00 2.60553322e-01 
472 1019.91 8.44685991e+00 2.53405797e-01 
471 1021.71 8.58411494e+00 2.57523448e-01 
470 1023.51 8.36493263e+00 2.50947979e-01 
469 1025.30 8.53762941e+00 2.56128882e-01 
468 1027.09 8.42830531e+00 2.52849159e-01 
467 1028.88 8.57837409e+00 2.57351223e-01 
466 1030.67 8.42028387e+00 2.52608516e-01 
465 1032.46 8.57513008e+00 2.57253903e-01 
464 1034.24 8.44551414e+00 2.53365424e-01 
463 1036.02 8.63161734e+00 2.58948520e-01 
462 1037.80 8.53069009e+00 2.55920703e-01 
461 1039.58 8.74054529e+00 2.62216359e-01 
460 1041.35 8.60430130e+00 2.58129039e-01 
459 1043.12 8.75973556e+00 2.62792067e-01 
458 1044.89 8.67981521e+00 2.60394456e-01 
457 1046.66 8.90206897e+00 2.67062069e-01 
456 1048.43 8.84976466e+00 2.65492940e-01 
455 1050.19 9.08518411e+00 2.72555523e-01 
454 1051.95 8.94774692e+00 2.68432408e-01 
453 1053.71 9.19826283e+00 2.75947885e-01 
452 1055.47 9.04170010e+00 2.71251003e-01 
451 1057.23 9.17174825e+00 2.75152448e-01 
450 1058.98 9.04276088e+00 2.71282826e-01 
449 1060.73 9.23868459e+00 2.77160538e-01 
448 1062.48 9.05344166e+00 2.71603250e-01 
447 1064.23 9.19370587e+00 2.75811176e-01 
446 1065.97 8.91265878e+00 2.67379763e-01 
445 1067.71 8.96322429e+00 2.68896729e-01 
444 1069.46 8.73473550e+00 2.62042065e-01 
443 1071.19 8.83731338e+00 2.65119402e-01 
442 1072.93 8.66181434e+00 2.59854430e-01 
441 1074.67 8.72273228e+00 2.61681968e-01 
440 1076.40 8.52317703e+00 2.55695311e-01 
439 1078.13 8.58096944e+00 2.57429083e-01 
438 1079.86 8.33961245e+00 2.50188374e-01 
437 1081.58 8.42854383e+00 2.52856315e-01 
436 1083.31 8.33293455e+00 2.49988037e-01 
435 1085.03 8.52997431e+00 2.55899229e-01 
434 1086.75 8.46692350e+00 2.54007705e-01 
433 1088.47 8.61780973e+00 2.58534292e-01 
432 1090.19 8.49536293e+00 2.54860888e-01 
431 1091.90 8.58863579e+00 2.57659074e-01 
430 1093.61 8.45260461e+00 2.53578138e-01 
429 1095.33 8.66738266e+00 2.60021480e-01 
428 1097.03 8.71850399e+00 2.61555120e-01 
427 1098.74 8.95659732e+00 2.68697920e-01 
426 1100.45 8.98176757e+00 2.69453027e-01 
425 1102.15 9.27654774e+00 2.78296432e-01 
424 1103.85 9.26786018e+00 2.78035805e-01 
423 1105.55 9.49743329e+00 2.84922999e-01 
422 1107.25 9.41689255e+00 2.82506776e-01 
421 1108.94 9.52995223e+00 2.85898567e-01 
420 1110.64 9.28992570e+00 2.78697771e-01 
419 1112.33 9.21119458e+00 2.76335837e-01 
418 1114.02 8.75827491e+00 2.62748247e-01 
417 1115.70 8.63376029e+00 2.59012809e-01 
416 1117.39 8.32489146e+00 2.49746744e-01 
415 1119.07 8.25135008e+00 2.47540502e-01 
414 1120.76 8.06780897e+00 2.42034269e-01 
413 1122.44 8.06625216e+00 2.41987565e-01 
412 1124.12 8.03063882e+00 2.40919164e-01 
411 1125.79 8.28853316e+00 2.48655995e-01 
410 1127.47 8.51092196e+00 2.55327659e-01 
409 1129.14 8.89262181e+00 2.66778654e-01 
408 1130.81 8.41513933e+00 2.52454180e-01 
407 1132.48 8.22630006e+00 2.46789002e-01 
406 1134.15 8.05304769e+00 2.41591431e-01 
405 1135.81 8.42824446e+00 2.52847334e-01 
404 1137.48 9.01040518e+00 2.70312155e-01 
403 1139.14 9.32169844e+00 2.79650953e-01 
402 1140.80 9.06083284e+00 2.71824985e-01 
401 1142.46 8.96173245e+00 2.68851974e-01 
400 1144.12 8.66531226e+00 2.59959368e-01 
399 1145.77 8.68779591e+00 2.60633877e-01 
398 1147.43 8.71834194e+00 2.61550258e-01 
397 1149.08 8.93903581e+00 2.68171074e-01 
396 1150.73 8.93205101e+00 2.67961530e-01 
395 1152.38 9.17908109e+00 2.75372433e-01 
394 1154.02 9.18648810e+00 2.75594643e-01 
393 1155.67 9.44982526e+00 2.83494758e-01 
392 1157.31 9.34932647e+00 2.80479794e-01 
391 1158.95 9.46682894e+00 2.84004868e-01 
390 1160.59 9.43562479e+00 2.83068744e-01 
389 1162.23 9.61375135e+00 2.88412540e-01 
388 1163.87 9.52532182e+00 2.85759655e-01 
387 1165.50 9.59579443e+00 2.87873833e-01 
386 1167.13 9.48064871e+00 2.84419461e-01 
385 1168.76 9.58108396e+00 2.87432519e-01 
384 1170.39 9.43399961e+00 2.83019988e-01 
383 1172.02 9.42484176e+00 2.82745253e-01 
382 1173.65 9.26635049e+00 2.77990515e-01 
381 1175.27 9.25966866e+00 2.77790060e-01 
380 1176.90 9.14140534e+00 2.74242160e-01 
379 1178.52 9.07662653e+00 2.72298796e-01 
378 1180.14 8.81728588e+00 2.64518577e-01 
377 1181.75 8.78171436e+00 2.63451431e-01 
376 1183.37 8.58737944e+00 2.57621383e-01 
375 1184.99 8.58319112e+00 2.57495734e-01 
374 1186.60 8.44459774e+00 2.53337932e-01 
373 1188.21 8.41121948e+00 2.52336584e-01 
372 1189.82 8.33241767e+00 2.49972530e-01 
371 1191.43 8.54020481e+00 2.56206144e-01 
370 1193.04 8.44428305e+00 2.53328491e-01 
369 1194.64 8.43103076e+00 2.52930923e-01 
368 1196.24 8.24592569e+00 2.47377771e-01 
367 1197.85 8.32465144e+00 2.49739543e-01 
366 1199.45 8.23883383e+00 2.47165015e-01 
365 1201.05 8.31207999e+00 2.49362400e-01 
364 1202.64 8.24091158e+00 2.47227347e-01 
363 1204.24 8.29514671e+00 2.48854401e-01 
362 1205.83 8.22774358e+00 2.46832307e-01 
361 1207.43 8.22180938e+00 2.46654281e-01 
360 1209.02 8.15804619e+00 2.44741386e-01 
359 1210.61 8.26315423e+00 2.47894627e-01 
358 1212.19 8.26270321e+00 2.47881096e-01 
357 1213.78 8.40319092e+00 2.52095728e-01 
356 1215.37 8.33767798e+00 2.50130340e-01 
355 1216.95 8.40764698e+00 2.52229410e-01 
354 1218.53 8.38705706e+00 2.51611712e-01 
353 1220.11 8.47440525e+00 2.54232158e-01 
352 1221.69 8.43427211e+00 2.53028163e-01 
351 1223.27 8.47626107e+00 2.54287832e-01 
350 1224.84 8.46156199e+00 2.53846860e-01 
349 1226.42 8.50593033e+00 2.55177910e-01 
348 1227.99 8.49797643e+00 2.54939293e-01 
347 1229.56 8.63848469e+00 2.59154541e-01 
346 1231.13 8.57360353e+00 2.57208106e-01 
345 1232.70 8.65990876e+00 2.59797263e-01 
344 1234.27 8.64916979e+00 2.59475094e-01 
343 1235.84 8.66346812e+00 2.59904044e-01 
342 1237.40 8.58928752e+00 2.57678626e-01 
341 1238.96 8.56037217e+00 2.56811165e-01 
340 1240.52 8.38887998e+00 2.51666399e-01 
339 1242.08 8.48766953e+00 2.54630086e-01 
338 1243.64 8.45850524e+00 2.53755157e-01 
337 1245.20 8.48872100e+00 2.54661630e-01 
336 1246.75 8.46176911e+00 2.53853073e-01 
335 1248.31 8.51698212e+00 2.55509464e-01 
334 1249.86 8.47921695e+00 2.54376508e-01 
333 1251.41 8.54906573e+00 2.56471972e-01 
332 1252.96 8.50030156e+00 2.55009047e-01 
331 1254.51 8.53118953e+00 2.55935686e-01 
330 1256.06 8.45801008e+00 2.53740303e-01 
329 1257.61 8.44637709e+00 2.53391313e-01 
328 1259.15 8.33662739e+00 2.50098822e-01 
327 1260.69 8.29115870e+00 2.48734761e-01 
326 1262.23 8.16148310e+00 2.44844493e-01 
325 1263.77 8.12018200e+00 2.43605460e-01 
324 1265.31 7.94197955e+00 2.38259386e-01 
323 1266.85 7.93238250e+00 2.37971475e-01 
322 1268.39 7.98213223e+00 2.39463967e-01 
321 1269.92 8.08534356e+00 2.42560307e-01 
320 1271.46 8.26609188e+00 2.47982756e-01 
319 1272.99 8.33097034e+00 2.49929110e-01 
318 1274.52 8.32954810e+00 2.49886443e-01 
317 1276.05 8.39103635e+00 2.51731091e-01 
316 1277.58 8.23404720e+00 2.47021416e-01 
315 1279.10 8.06057663e+00 2.41817299e-01 
314 1280.63 7.99431010e+00 2.39829303e-01 
313 1282.15 7.97817108e+00 2.39345132e-01 
312 1283.68 8.05416068e+00 2.41624820e-01 
311 1285.20 8.23855136e+00 2.47156541e-01 
310 1286.72 8.20356552e+00 2.46106966e-01 
309 1288.24 8.21700548e+00 2.46510165e-01 
308 1289.75 8.11974424e+00 2.43592327e-01 
307 1291.27 8.15584178e+00 2.44675253e-01 
306 1292.78 8.19589679e+00 2.45876904e-01 
305 1294.30 8.22069960e+00 2.46620988e-01 
304 1295.81 8.15106069e+00 2.44531821e-01 
303 1297.32 8.14631463e+00 2.44389439e-01 
302 1298.83 8.08516619e+00 2.42554986e-01 
301 1300.34 8.00726279e+00 2.40217884e-01 
300 1301.85 7.93740769e+00 2.38122231e-01 
299 1303.35 7.87014028e+00 2.36104208e-01 
298 1304.86 7.77894366e+00 2.33368310e-01 
297 1306.36 7.76859155e+00 2.33057747e-01 
296 1307.86 7.73103673e+00 2.31931102e-01 
295 1309.36 7.63937466e+00 2.29181240e-01 
294 1310.86 7.55201815e+00 2.26560545e-01 
293 1312.36 7.49065316e+00 2.24719595e-01 
292 1313.86 7.44530890e+00 2.23359267e-01 
291 1315.36 7.45653822e+00 2.23696147e-01 
290 1316.85 7.42561974e+00 2.22768592e-01 
289 1318.34 7.39776442e+00 2.21932933e-01 
288 1319.84 7.33678994e+00 2.20103698e-01 
287 1321.33 7.33946265e+00 2.20183879e-01 
286 1322.82 7.27914392e+00 2.18374318e-01 
285 1324.30 7.23693635e+00 2.17108091e-01 
284 1325.79 7.09573051e+00 2.12871915e-01 
283 1327.28 6.96248048e+00 2.08874414e-01 
282 1328.76 6.76412956e+00 2.02923887e-01 
281 1330.25 6.70679331e+00 2.01203799e-01 
280 1331.73 6.65936286e+00 1.99780886e-01 
279 1333.21 6.63339515e+00 1.99001855e-01 
278 1334.69 6.60048830e+00 1.98014649e-01 
277 1336.17 6.53461312e+00 1.96038393e-01 
276 1337.65 6.45521719e+00 1.93656516e-01 
275 1339.12 6.39176191e+00 1.91752857e-01 
274 1340.60 6.27788235e+00 1.88336470e-01 
273 1342.07 6.14544198e+00 1.84363259e-01 
272 1343.55 5.90732924e+00 1.77219877e-01 
271 1345.02 5.40998542e+00 1.62299562e-01 
270 1346.49 5.08047516e+00 1.52414255e-01 
269 1347.96 4.70835558e+00 1.41250667e-01 
268 1349.43 4.29023352e+00 1.28707006e-01 
267 1350.89 3.87620719e+00 1.16286216e-01 
266 1352.36 3.32976470e+00 9.98929410e-02 
265 1353.82 2.98607690e+00 8.95823069e-02 
264 1355.29 2.62629088e+00 7.87887265e-02 
263 1356.75 2.38424558e+00 7.15273673e-02 
262 1358.21 2.00702334e+00 6.02107003e-02 
261 1359.67 1.65031556e+00 4.95094668e-02 
260 1361.13 1.49426220e+00 4.48278661e-02 
259 1362.59 1.50713995e+00 4.52141984e-02 
258 1364.04 1.69311644e+00 5.07934931e-02 
257 1365.50 1.65501416e+00 4.96504249e-02 
256 1366.95 1.61953212e+00 4.85859635e-02 
255 1368.41 1.58238575e+00 4.74715724e-02 
254 1369.86 1.64725027e+00 4.94175081e-02 
253 1371.31 1.86711686e+00 5.60135059e-02 
252 1372.76 1.97963436e+00 5.93890309e-02 
251 1374.21 2.20387422e+00 6.61162265e-02 
250 1375.65 2.21886254e+00 6.65658762e-02 
249 1377.10 1.98786672e+00 5.96360015e-02 
248 1378.55 1.64722253e+00 4.94166760e-02 
247 1379.99 1.29756998e+00 3.89270994e-02 
246 1381.43 1.05728715e+00 3.17186145e-02 
245 1382.87 1.10832570e+00 3.32497710e-02 
244 1384.32 1.27187300e+00 3.81561901e-02 
243 1385.75 1.52269904e+00 4.56809712e-02 
242 1387.19 1.87938997e+00 5.63816991e-02 
241 1388.63 2.03631734e+00 6.10895202e-02 
240 1390.07 2.09167176e+00 6.27501527e-02 
239 1391.50 2.00763718e+00 6.02291155e-02 
238 1392.94 1.64460222e+00 4.93380666e-02 
237 1394.37 1.70071094e+00 5.10213281e-02 
236 1395.80 1.89760926e+00 5.69282779e-02 
235 1397.23 1.79660546e+00 5.38981637e-02 
234 1398.66 1.93893426e+00 5.81680279e-02 
233 1400.09 2.07381471e+00 6.22144413e-02 
232 1401.52 1.88907239e+00 5.66721718e-02 
231 1402.94 2.10564551e+00 6.31693653e-02 
230 1404.37 2.22313255e+00 6.66939765e-02 
229 1405.79 2.11903485e+00 6.35710454e-02 
228 1407.22 2.21146688e+00 6.63440065e-02 
227 1408.64 2.37757528e+00 7.13272583e-02 
226 1410.06 2.58422190e+00 7.75266569e-02 
225 1411.48 2.58885225e+00 7.76655675e-02 
224 1412.90 2.77794797e+00 8.33384390e-02 
223 1414.32 2.90521311e+00 8.71563933e-02 
222 1415.73 2.84004867e+00 8.52014600e-02 
221 1417.15 2.89560517e+00 8.68681552e-02 
220 1418.56 3.03454506e+00 9.10363517e-02 
219 1419.98 2.99652680e+00 8.98958040e-02 
218 1421.39 3.14073434e+00 9.42220301e-02 
217 1422.80 3.33601102e+00 1.00080330e-01 
216 1424.21 3.39895378e+00 1.01968613e-01 
215 1425.62 3.38565264e+00 1.01569579e-01 
214 1427.03 3.50517687e+00 1.05155306e-01 
213 1428.44 3.35804940e+00 1.00741482e-01 
212 1429.84 3.21895606e+00 9.65686819e-02 
211 1431.25 3.21885844e+00 9.65657532e-02 
210 1432.65 3.21036564e+00 9.63109693e-02 
209 1434.06 3.25105015e+00 9.75315045e-02 
208 1435.46 3.35919184e+00 1.00775755e-01 
207 1436.86 3.40084929e+00 1.02025479e-01 
206 1438.26 3.43304406e+00 1.02991322e-01 
205 1439.66 3.47121760e+00 1.04136528e-01 
204 1441.05 3.61334136e+00 1.08400241e-01 
203 1442.45 3.52689562e+00 1.05806869e-01 
202 1443.85 3.55545451e+00 1.06663635e-01 
201 1445.24 3.66095420e+00 1.09828626e-01 
200 1446.64 3.70065993e+00 1.11019798e-01 
199 1448.03 3.65979404e+00 1.09793821e-01 
198 1449.42 3.77531659e+00 1.13259498e-01 
197 1450.81 3.81588583e+00 1.14476575e-01 
196 1452.20 3.87055332e+00 1.16116600e-01 
195 1453.59 4.08894931e+00 1.22668479e-01 
194 1454.97 4.27222221e+00 1.28166666e-01 
193 1456.36 4.29659065e+00 1.28897720e-01 
192 1457.75 4.34041300e+00 1.30212390e-01 
191 1459.13 4.30419890e+00 1.29125967e-01 
190 1460.51 4.27850882e+00 1.28355265e-01 
189 1461.90 4.11971523e+00 1.23591457e-01 
188 1463.28 4.03803271e+00 1.21140981e-01 
187 1464.66 3.93446847e+00 1.18034054e-01 
186 1466.04 3.96673578e+00 1.19002073e-01 
185 1467.41 3.83001435e+00 1.14900431e-01 
184 1468.79 3.76700802e+00 1.13010241e-01 
183 1470.17 3.71222654e+00 1.11366796e-01 
182 1471.54 3.75326783e+00 1.12598035e-01 
181 1472.92 3.84336924e+00 1.15301077e-01 
180 1474.29 3.99460814e+00 1.19838244e-01 
179 1475.66 4.02500086e+00 1.20750026e-01 
178 1477.03 3.97210402e+00 1.19163121e-01 
177 1478.40 3.92468653e+00 1.17740596e-01 
176 1479.77 3.99746068e+00 1.19923820e-01 
175 1481.14 4.00437413e+00 1.20131224e-01 
174 1482.51 4.09288196e+00 1.22786459e-01 
173 1483.87 4.05758802e+00 1.21727641e-01 
172 1485.24 4.02696427e+00 1.20808928e-01 
171 1486.60 3.97451261e+00 1.19235378e-01 
170 1487.96 4.04108978e+00 1.21232693e-01 
169 1489.32 4.05075569e+00 1.21522671e-01 
168 1490.69 4.22228309e+00 1.26668493e-01 
167 1492.04 4.24334290e+00 1.27300287e-01 
166 1493.40 4.31206435e+00 1.29361930e-01 
165 1494.76 4.30368935e+00 1.29110681e-01 
164 1496.12 4.33216897e+00 1.29965069e-01 
163 1497.47 4.29165558e+00 1.28749667e-01 
162 1498.83 4.36236471e+00 1.30870941e-01 
161 1500.18 4.21084715e+00 1.26325415e-01 
160 1501.53 4.14044778e+00 1.24213433e-01 
159 1502.89 4.03932699e+00 1.21179810e-01 
158 1504.24 4.08786374e+00 1.22635912e-01 
157 1505.59 4.12702546e+00 1.23810764e-01 
156 1506.93 4.25559954e+00 1.27667986e-01 
155 1508.28 4.28510040e+00 1.28553012e-01 
154 1509.63 4.32652351e+00 1.29795705e-01 
153 1510.97 4.28375814e+00 1.28512744e-01 
152 1512.32 4.35470366e+00 1.30641110e-01 
151 1513.66 4.29299736e+00 1.28789921e-01 
150 1515.00 4.34299890e+00 1.30289967e-01 
149 1516.34 4.28765850e+00 1.28629755e-01 
148 1517.69 4.29165598e+00 1.28749679e-01 
147 1519.02 4.20837599e+00 1.26251280e-01 
146 1520.36 4.22263051e+00 1.26678915e-01 
145 1521.70 4.15401975e+00 1.24620592e-01 
144 1523.04 4.20464262e+00 1.26139279e-01 
143 1524.37 4.16468271e+00 1.24940481e-01 
142 1525.71 4.20983432e+00 1.26295030e-01 
141 1527.04 4.14017429e+00 1.24205229e-01 
140 1528.37 4.16174652e+00 1.24852396e-01 
139 1529.70 4.07701307e+00 1.22310392e-01 
138 1531.03 4.11786243e+00 1.23535873e-01 
137 1532.36 4.06772001e+00 1.22031600e-01 
136 1533.69 4.10941419e+00 1.23282426e-01 
135 1535.02 4.01506630e+00 1.20451989e-01 
134 1536.34 4.04124250e+00 1.21237275e-01 
133 1537.67 3.96532635e+00 1.18959790e-01 
132 1538.99 4.00622984e+00 1.20186895e-01 
131 1540.31 3.96490621e+00 1.18947186e-01 
130 1541.64 4.01499100e+00 1.20449730e-01 
129 1542.96 3.96827704e+00 1.19048311e-01 
128 1544.28 3.99614750e+00 1.19884425e-01 
127 1545.60 3.90784980e+00 1.17235494e-01 
126 1546.91 3.94894732e+00 1.18468420e-01 
125 1548.23 3.86688655e+00 1.16006596e-01 
124 1549.55 3.92418693e+00 1.17725608e-01 
123 1550.86 3.85184204e+00 1.15555261e-01 
122 1552.18 3.87278965e+00 1.16183690e-01 
121 1553.49 3.81185161e+00 1.14355548e-01 
120 1554.80 3.84743187e+00 1.15422956e-01 
119 1556.11 3.75855309e+00 1.12756593e-01 
118 1557.42 3.80008840e+00 1.14002652e-01 
117 1558.73 3.73354049e+00 1.12006215e-01 
116 1560.04 3.77090553e+00 1.13127166e-01 
115 1561.34 3.68474375e+00 1.10542312e-01 
114 1562.65 3.75021230e+00 1.12506369e-01 
113 1563.95 3.67049032e+00 1.10114709e-01 
112 1565.26 3.73053423e+00 1.11916027e-01 
111 1566.56 3.62019039e+00 1.08605712e-01 
110 1567.86 3.65395416e+00 1.09618625e-01 
109 1569.16 3.55703316e+00 1.06710995e-01 
108 1570.46 3.56707162e+00 1.07012149e-01 
107 1571.76 3.47857775e+00 1.04357332e-01 
106 1573.05 3.45130249e+00 1.03539075e-01 
105 1574.35 3.33678789e+00 1.00103637e-01 
104 1575.64 3.36306182e+00 1.00891855e-01 
103 1576.94 3.31697062e+00 9.95091187e-02 
102 1578.23 3.38714332e+00 1.01614300e-01 
101 1579.52 3.36107696e+00 1.00832309e-01 
100 1580.81 3.42544407e+00 1.02763322e-01 
99 1582.10 3.35346926e+00 1.00604078e-01 
98 1583.39 3.41172682e+00 1.02351805e-01 
97 1584.68 3.31150090e+00 9.93450270e-02 
96 1585.97 3.29431754e+00 9.88295263e-02 
95 1587.25 3.17668775e+00 9.53006324e-02 
94 1588.54 3.18976498e+00 9.56929495e-02 
93 1589.82 3.11580946e+00 9.34742839e-02 
92 1591.10 3.21935096e+00 9.65805289e-02 
91 1592.38 3.18049004e+00 9.54147012e-02 
90 1593.66 3.24624955e+00 9.73874865e-02 
89 1594.94 3.16299625e+00 9.48898876e-02 
88 1596.22 3.18948933e+00 9.56846800e-02 
87 1597.50 3.09086346e+00 9.27259039e-02 
86 1598.77 3.10413933e+00 9.31241798e-02 
85 1600.05 2.98905512e+00 8.96716535e-02 
84 1601.32 3.01451581e+00 9.04354742e-02 
83 1602.59 2.93325221e+00 8.79975663e-02 
82 1603.86 2.99415289e+00 8.98245866e-02 
81 1605.13 2.88146840e+00 8.64440521e-02 
80 1606.40 2.94717333e+00 8.84151998e-02 
79 1607.67 2.84631425e+00 8.53894274e-02 
78 1608.94 2.90054957e+00 8.70164870e-02 
77 1610.20 2.83426063e+00 8.50278188e-02 
76 1611.47 2.90398558e+00 8.71195673e-02 
75 1612.73 2.83962363e+00 8.51887089e-02 
74 1614.00 2.88689355e+00 8.66068066e-02 
73 1615.26 2.79805173e+00 8.39415518e-02 
72 1616.52 2.82128816e+00 8.46386449e-02 
71 1617.78 2.71187159e+00 8.13561476e-02 
70 1619.03 2.74819938e+00 8.24459815e-02 
69 1620.29 2.68292558e+00 8.04877673e-02 
68 1621.55 2.75164367e+00 8.25493101e-02 
67 1622.80 2.69450287e+00 8.08350860e-02 
66 1624.06 2.77333084e+00 8.31999252e-02 
65 1625.31 2.68656496e+00 8.05969489e-02 
64 1626.56 2.75029009e+00 8.25087026e-02 
63 1627.81 2.64719255e+00 7.94157766e-02 
62 1629.06 2.66079819e+00 7.98239457e-02 
61 1630.31 2.55957385e+00 7.67872155e-02 
60 1631.56 2.57348570e+00 7.72045709e-02 
59 1632.80 2.47920467e+00 7.43761402e-02 
58 1634.05 2.51541146e+00 7.54623437e-02 
57 1635.29 2.40005141e+00 7.20015422e-02 
56 1636.53 2.42388534e+00 7.27165602e-02 
55 1637.77 2.30057483e+00 6.90172448e-02 
54 1639.01 2.32201393e+00 6.96604180e-02 
53 1640.25 2.24644721e+00 6.73934162e-02 
52 1641.49 2.26674523e+00 6.80023570e-02 
51 1642.73 2.18938296e+00 6.56814888e-02 
