% C0 (TOA Count Rate, /ms) for 4STAR NIR spectrometer (512 channels) derived from 20160118starsun.mat and recorded on 2016-01-18 14:08:16.
% Data outside 2.0x the STD of 501 nm Langley residuals were screened out.
Pix Wavelength C0 C0err
511 949.79 3.94390318e+00 1.18317095e-01 
510 949.79 4.65633178e+00 1.39689953e-01 
509 951.68 5.04460781e+00 1.51338234e-01 
508 953.57 5.11497697e+00 1.53449309e-01 
507 955.46 5.56783532e+00 1.67035060e-01 
506 957.34 5.67042191e+00 1.70112657e-01 
505 959.22 6.18546688e+00 1.85564006e-01 
504 961.10 6.31576110e+00 1.89472833e-01 
503 962.98 6.81482660e+00 2.04444798e-01 
502 964.85 6.87335695e+00 2.06200709e-01 
501 966.72 7.46193578e+00 2.23858073e-01 
500 968.59 7.55874812e+00 2.26762444e-01 
499 970.45 7.98203445e+00 2.39461034e-01 
498 972.32 7.93395224e+00 2.38018567e-01 
497 974.18 8.24174241e+00 2.47252272e-01 
496 976.04 8.17513430e+00 2.45254029e-01 
495 977.89 8.54223157e+00 2.56266947e-01 
494 979.74 8.49912042e+00 2.54973613e-01 
493 981.59 8.80619396e+00 2.64185819e-01 
492 983.44 8.72857354e+00 2.61857206e-01 
491 985.29 9.00019431e+00 2.70005829e-01 
490 987.13 8.80610317e+00 2.64183095e-01 
489 988.97 9.04803807e+00 2.71441142e-01 
488 990.81 8.84794904e+00 2.65438471e-01 
487 992.65 9.01376541e+00 2.70412962e-01 
486 994.48 8.81494941e+00 2.64448482e-01 
485 996.31 8.97453589e+00 2.69236077e-01 
484 998.14 8.71279141e+00 2.61383742e-01 
483 999.97 8.86937671e+00 2.66081301e-01 
482 1001.79 8.57980233e+00 2.57394070e-01 
481 1003.62 8.65194977e+00 2.59558493e-01 
480 1005.44 8.45293165e+00 2.53587950e-01 
479 1007.25 8.68421706e+00 2.60526512e-01 
478 1009.07 8.50517559e+00 2.55155268e-01 
477 1010.88 8.69939025e+00 2.60981707e-01 
476 1012.69 8.44429471e+00 2.53328841e-01 
475 1014.50 8.58516208e+00 2.57554862e-01 
474 1016.31 8.35004221e+00 2.50501266e-01 
473 1018.11 8.51822536e+00 2.55546761e-01 
472 1019.91 8.26253392e+00 2.47876018e-01 
471 1021.71 8.41427701e+00 2.52428310e-01 
470 1023.51 8.19431948e+00 2.45829584e-01 
469 1025.30 8.35850098e+00 2.50755029e-01 
468 1027.09 8.24629012e+00 2.47388704e-01 
467 1028.88 8.40497137e+00 2.52149141e-01 
466 1030.67 8.24811997e+00 2.47443599e-01 
465 1032.46 8.41701793e+00 2.52510538e-01 
464 1034.24 8.27649927e+00 2.48294978e-01 
463 1036.02 8.46102440e+00 2.53830732e-01 
462 1037.80 8.31650601e+00 2.49495180e-01 
461 1039.58 8.53827889e+00 2.56148367e-01 
460 1041.35 8.39507220e+00 2.51852166e-01 
459 1043.12 8.55392833e+00 2.56617850e-01 
458 1044.89 8.46864108e+00 2.54059232e-01 
457 1046.66 8.69356784e+00 2.60807035e-01 
456 1048.43 8.62306160e+00 2.58691848e-01 
455 1050.19 8.84392543e+00 2.65317763e-01 
454 1051.95 8.71711987e+00 2.61513596e-01 
453 1053.71 8.97549756e+00 2.69264927e-01 
452 1055.47 8.82450264e+00 2.64735079e-01 
451 1057.23 8.96703955e+00 2.69011186e-01 
450 1058.98 8.83561650e+00 2.65068495e-01 
449 1060.73 9.01584957e+00 2.70475487e-01 
448 1062.48 8.83696044e+00 2.65108813e-01 
447 1064.23 8.99645013e+00 2.69893504e-01 
446 1065.97 8.73363001e+00 2.62008900e-01 
445 1067.71 8.78239161e+00 2.63471748e-01 
444 1069.46 8.56274532e+00 2.56882360e-01 
443 1071.19 8.66606632e+00 2.59981989e-01 
442 1072.93 8.48948035e+00 2.54684410e-01 
441 1074.67 8.57000568e+00 2.57100170e-01 
440 1076.40 8.36422924e+00 2.50926877e-01 
439 1078.13 8.41852802e+00 2.52555841e-01 
438 1079.86 8.17703280e+00 2.45310984e-01 
437 1081.58 8.25072965e+00 2.47521890e-01 
436 1083.31 8.13963029e+00 2.44188909e-01 
435 1085.03 8.30352363e+00 2.49105709e-01 
434 1086.75 8.20631050e+00 2.46189315e-01 
433 1088.47 8.33771655e+00 2.50131496e-01 
432 1090.19 8.21633550e+00 2.46490065e-01 
431 1091.90 8.30371815e+00 2.49111545e-01 
430 1093.61 8.14827305e+00 2.44448192e-01 
429 1095.33 8.35697638e+00 2.50709291e-01 
428 1097.03 8.37194380e+00 2.51158314e-01 
427 1098.74 8.61285743e+00 2.58385723e-01 
426 1100.45 8.59707076e+00 2.57912123e-01 
425 1102.15 8.88073375e+00 2.66422013e-01 
424 1103.85 8.82959430e+00 2.64887829e-01 
423 1105.55 9.01627606e+00 2.70488282e-01 
422 1107.25 8.85696713e+00 2.65709014e-01 
421 1108.94 8.88981730e+00 2.66694519e-01 
420 1110.64 8.47861849e+00 2.54358555e-01 
419 1112.33 8.20851270e+00 2.46255381e-01 
418 1114.02 7.50737051e+00 2.25221115e-01 
417 1115.70 7.30787942e+00 2.19236383e-01 
416 1117.39 6.98055081e+00 2.09416524e-01 
415 1119.07 6.85504709e+00 2.05651413e-01 
414 1120.76 6.62131005e+00 1.98639301e-01 
413 1122.44 6.56775153e+00 1.97032546e-01 
412 1124.12 6.51928154e+00 1.95578446e-01 
411 1125.79 6.83885000e+00 2.05165500e-01 
410 1127.47 7.09435766e+00 2.12830730e-01 
409 1129.14 7.61719757e+00 2.28515927e-01 
408 1130.81 6.99785848e+00 2.09935754e-01 
407 1132.48 6.75246988e+00 2.02574096e-01 
406 1134.15 6.61681458e+00 1.98504438e-01 
405 1135.81 7.17755877e+00 2.15326763e-01 
404 1137.48 8.05598623e+00 2.41679587e-01 
403 1139.14 8.47582449e+00 2.54274735e-01 
402 1140.80 8.10086384e+00 2.43025915e-01 
401 1142.46 7.87786848e+00 2.36336054e-01 
400 1144.12 7.43399413e+00 2.23019824e-01 
399 1145.77 7.39069203e+00 2.21720761e-01 
398 1147.43 7.45573602e+00 2.23672081e-01 
397 1149.08 7.80131320e+00 2.34039396e-01 
396 1150.73 7.80852352e+00 2.34255706e-01 
395 1152.38 8.17061997e+00 2.45118599e-01 
394 1154.02 8.22525187e+00 2.46757556e-01 
393 1155.67 8.59366804e+00 2.57810041e-01 
392 1157.31 8.56735910e+00 2.57020773e-01 
391 1158.95 8.74923379e+00 2.62477014e-01 
390 1160.59 8.80262182e+00 2.64078655e-01 
389 1162.23 9.05421866e+00 2.71626560e-01 
388 1163.87 9.04236083e+00 2.71270825e-01 
387 1165.50 9.15078371e+00 2.74523511e-01 
386 1167.13 9.04764939e+00 2.71429482e-01 
385 1168.76 9.19037061e+00 2.75711118e-01 
384 1170.39 9.02580198e+00 2.70774059e-01 
383 1172.02 8.99229803e+00 2.69768941e-01 
382 1173.65 8.83260228e+00 2.64978068e-01 
381 1175.27 8.81895941e+00 2.64568782e-01 
380 1176.90 8.72876940e+00 2.61863082e-01 
379 1178.52 8.63072251e+00 2.58921675e-01 
378 1180.14 8.40873263e+00 2.52261979e-01 
377 1181.75 8.36641632e+00 2.50992490e-01 
376 1183.37 8.19669318e+00 2.45900795e-01 
375 1184.99 8.20568469e+00 2.46170541e-01 
374 1186.60 8.10139867e+00 2.43041960e-01 
373 1188.21 8.10136847e+00 2.43041054e-01 
372 1189.82 8.04549821e+00 2.41364946e-01 
371 1191.43 8.26467216e+00 2.47940165e-01 
370 1193.04 8.18002499e+00 2.45400750e-01 
369 1194.64 8.14971929e+00 2.44491579e-01 
368 1196.24 7.92922431e+00 2.37876729e-01 
367 1197.85 8.00076346e+00 2.40022904e-01 
366 1199.45 7.87688383e+00 2.36306515e-01 
365 1201.05 7.92706383e+00 2.37811915e-01 
364 1202.64 7.84169705e+00 2.35250911e-01 
363 1204.24 7.91080148e+00 2.37324044e-01 
362 1205.83 7.86392717e+00 2.35917815e-01 
361 1207.43 7.89995203e+00 2.36998561e-01 
360 1209.02 7.85218724e+00 2.35565617e-01 
359 1210.61 7.99910770e+00 2.39973231e-01 
358 1212.19 8.00795973e+00 2.40238792e-01 
357 1213.78 8.19924503e+00 2.45977351e-01 
356 1215.37 8.13544981e+00 2.44063494e-01 
355 1216.95 8.19282659e+00 2.45784798e-01 
354 1218.53 8.15059626e+00 2.44517888e-01 
353 1220.11 8.22533650e+00 2.46760095e-01 
352 1221.69 8.16988761e+00 2.45096628e-01 
351 1223.27 8.22697157e+00 2.46809147e-01 
350 1224.84 8.23568190e+00 2.47070457e-01 
349 1226.42 8.27694294e+00 2.48308288e-01 
348 1227.99 8.26730274e+00 2.48019082e-01 
347 1229.56 8.41138276e+00 2.52341483e-01 
346 1231.13 8.34748587e+00 2.50424576e-01 
345 1232.70 8.43508600e+00 2.53052580e-01 
344 1234.27 8.41118614e+00 2.52335584e-01 
343 1235.84 8.43304406e+00 2.52991322e-01 
342 1237.40 8.35456848e+00 2.50637054e-01 
341 1238.96 8.34947031e+00 2.50484109e-01 
340 1240.52 8.18706288e+00 2.45611887e-01 
339 1242.08 8.29660216e+00 2.48898065e-01 
338 1243.64 8.28550821e+00 2.48565246e-01 
337 1245.20 8.34946072e+00 2.50483822e-01 
336 1246.75 8.30558545e+00 2.49167564e-01 
335 1248.31 8.38332989e+00 2.51499897e-01 
334 1249.86 8.31645885e+00 2.49493766e-01 
333 1251.41 8.37134466e+00 2.51140340e-01 
332 1252.96 8.29356344e+00 2.48806903e-01 
331 1254.51 8.30101059e+00 2.49030318e-01 
330 1256.06 8.19389489e+00 2.45816847e-01 
329 1257.61 8.14464686e+00 2.44339406e-01 
328 1259.15 7.99609447e+00 2.39882834e-01 
327 1260.69 7.91875255e+00 2.37562577e-01 
326 1262.23 7.73454812e+00 2.32036444e-01 
325 1263.77 7.66351495e+00 2.29905448e-01 
324 1265.31 7.39614107e+00 2.21884232e-01 
323 1266.85 7.40073681e+00 2.22022104e-01 
322 1268.39 7.46758383e+00 2.24027515e-01 
321 1269.92 7.64076247e+00 2.29222874e-01 
320 1271.46 7.91534911e+00 2.37460473e-01 
319 1272.99 8.03589187e+00 2.41076756e-01 
318 1274.52 8.03052593e+00 2.40915778e-01 
317 1276.05 8.10324164e+00 2.43097249e-01 
316 1277.58 7.95609251e+00 2.38682775e-01 
315 1279.10 7.79518258e+00 2.33855477e-01 
314 1280.63 7.72859154e+00 2.31857746e-01 
313 1282.15 7.73731352e+00 2.32119406e-01 
312 1283.68 7.82756998e+00 2.34827100e-01 
311 1285.20 8.04566369e+00 2.41369911e-01 
310 1286.72 8.01973328e+00 2.40591998e-01 
309 1288.24 8.03618237e+00 2.41085471e-01 
308 1289.75 7.95226945e+00 2.38568083e-01 
307 1291.27 7.99335695e+00 2.39800709e-01 
306 1292.78 8.03771159e+00 2.41131348e-01 
305 1294.30 8.04032112e+00 2.41209634e-01 
304 1295.81 7.94486671e+00 2.38346001e-01 
303 1297.32 7.92472123e+00 2.37741637e-01 
302 1298.83 7.85011227e+00 2.35503368e-01 
301 1300.34 7.75159329e+00 2.32547799e-01 
300 1301.85 7.65785259e+00 2.29735578e-01 
299 1303.35 7.56456526e+00 2.26936958e-01 
298 1304.86 7.47142971e+00 2.24142891e-01 
297 1306.36 7.46044237e+00 2.23813271e-01 
296 1307.86 7.40083155e+00 2.22024947e-01 
295 1309.36 7.31685152e+00 2.19505546e-01 
294 1310.86 7.16473678e+00 2.14942103e-01 
293 1312.36 7.09713218e+00 2.12913965e-01 
292 1313.86 7.04707936e+00 2.11412381e-01 
291 1315.36 7.06759342e+00 2.12027803e-01 
290 1316.85 7.00200389e+00 2.10060117e-01 
289 1318.34 6.97572939e+00 2.09271882e-01 
288 1319.84 6.84961339e+00 2.05488402e-01 
287 1321.33 6.86279852e+00 2.05883956e-01 
286 1322.82 6.79905762e+00 2.03971729e-01 
285 1324.30 6.74222962e+00 2.02266888e-01 
284 1325.79 6.54035488e+00 1.96210646e-01 
283 1327.28 6.34225792e+00 1.90267738e-01 
282 1328.76 6.02309693e+00 1.80692908e-01 
281 1330.25 5.90055905e+00 1.77016771e-01 
280 1331.73 5.84415157e+00 1.75324547e-01 
279 1333.21 5.83604492e+00 1.75081348e-01 
278 1334.69 5.84851834e+00 1.75455550e-01 
277 1336.17 5.81953241e+00 1.74585972e-01 
276 1337.65 5.69696261e+00 1.70908878e-01 
275 1339.12 5.68397788e+00 1.70519336e-01 
274 1340.60 5.47982268e+00 1.64394681e-01 
273 1342.07 5.26600486e+00 1.57980146e-01 
272 1343.55 4.95524610e+00 1.48657383e-01 
271 1345.02 4.27125004e+00 1.28137501e-01 
270 1346.49 3.84920666e+00 1.15476200e-01 
269 1347.96 3.34337319e+00 1.00301196e-01 
268 1349.43 2.80463618e+00 8.41390855e-02 
267 1350.89 2.36163660e+00 7.08490980e-02 
266 1352.36 1.69065568e+00 5.07196704e-02 
265 1353.82 1.34051819e+00 4.02155458e-02 
264 1355.29 2.88150721e-01 8.64452164e-03 
263 1356.75 5.99563585e-01 1.79869076e-02 
262 1358.21 1.80825760e-01 5.42477280e-03 
261 1359.67 2.05707653e-01 6.17122960e-03 
260 1361.13 1.92733832e-01 5.78201495e-03 
259 1362.59 1.24503044e-01 3.73509133e-03 
258 1364.04 1.27346464e-01 3.82039392e-03 
257 1365.50 2.83311651e-01 8.49934953e-03 
256 1366.95 3.21607816e-01 9.64823448e-03 
255 1368.41 1.57478465e-01 4.72435394e-03 
254 1369.86 8.20334110e-02 2.46100233e-03 
253 1371.31 5.04915641e-01 1.51474692e-02 
252 1372.76 4.30126414e-01 1.29037924e-02 
251 1374.21 1.01007376e+00 3.03022128e-02 
250 1375.65 4.33017455e-01 1.29905237e-02 
249 1377.10 5.20997679e-01 1.56299304e-02 
248 1378.55 2.46783966e-01 7.40351898e-03 
247 1379.99 4.44342902e-01 1.33302871e-02 
246 1381.43 2.43384149e-01 7.30152448e-03 
245 1382.87 1.19663906e-01 3.58991717e-03 
244 1384.32 1.20432825e-01 3.61298475e-03 
243 1385.75 5.76125144e-01 1.72837543e-02 
242 1387.19 9.02286388e-01 2.70685916e-02 
241 1388.63 4.97715970e-01 1.49314791e-02 
240 1390.07 1.31234458e+00 3.93703375e-02 
239 1391.50 1.29665003e+00 3.88995010e-02 
238 1392.94 4.30831459e-01 1.29249438e-02 
237 1394.37 9.19369574e-01 2.75810872e-02 
236 1395.80 9.64723384e-01 2.89417015e-02 
235 1397.23 1.02705997e+00 3.08117991e-02 
234 1398.66 4.88625483e-01 1.46587645e-02 
233 1400.09 1.19630505e+00 3.58891514e-02 
232 1401.52 9.85792395e-01 2.95737719e-02 
231 1402.94 1.24177089e+00 3.72531268e-02 
230 1404.37 7.18615344e-01 2.15584603e-02 
229 1405.79 1.44175195e+00 4.32525586e-02 
228 1407.22 6.92871881e-01 2.07861564e-02 
227 1408.64 1.53419129e+00 4.60257386e-02 
226 1410.06 1.29479149e+00 3.88437447e-02 
225 1411.48 1.51475876e+00 4.54427628e-02 
224 1412.90 1.45058657e+00 4.35175970e-02 
223 1414.32 1.93254233e+00 5.79762700e-02 
222 1415.73 1.83986695e+00 5.51960084e-02 
221 1417.15 1.90365133e+00 5.71095400e-02 
220 1418.56 2.07502504e+00 6.22507512e-02 
219 1419.98 2.04591671e+00 6.13775014e-02 
218 1421.39 2.22220076e+00 6.66660228e-02 
217 1422.80 2.50808811e+00 7.52426432e-02 
216 1424.21 2.51915460e+00 7.55746380e-02 
215 1425.62 2.49629579e+00 7.48888738e-02 
214 1427.03 2.57793984e+00 7.73381952e-02 
213 1428.44 2.41735532e+00 7.25206597e-02 
212 1429.84 2.25295239e+00 6.75885717e-02 
211 1431.25 2.32556718e+00 6.97670155e-02 
210 1432.65 2.29093614e+00 6.87280842e-02 
209 1434.06 2.37758669e+00 7.13276006e-02 
208 1435.46 2.48216016e+00 7.44648047e-02 
207 1436.86 2.59115546e+00 7.77346639e-02 
206 1438.26 2.61434774e+00 7.84304323e-02 
205 1439.66 2.75325384e+00 8.25976153e-02 
204 1441.05 2.90818877e+00 8.72456632e-02 
203 1442.45 2.86328394e+00 8.58985181e-02 
202 1443.85 2.84976145e+00 8.54928436e-02 
201 1445.24 2.99669508e+00 8.99008525e-02 
200 1446.64 2.99162892e+00 8.97488676e-02 
199 1448.03 2.88631077e+00 8.65893231e-02 
198 1449.42 2.98327251e+00 8.94981754e-02 
197 1450.81 3.05390803e+00 9.16172410e-02 
196 1452.20 3.13434912e+00 9.40304737e-02 
195 1453.59 3.52295386e+00 1.05688616e-01 
194 1454.97 3.77752522e+00 1.13325756e-01 
193 1456.36 3.85247915e+00 1.15574375e-01 
192 1457.75 3.87900177e+00 1.16370053e-01 
191 1459.13 3.82610344e+00 1.14783103e-01 
190 1460.51 3.73045952e+00 1.11913786e-01 
189 1461.90 3.56492718e+00 1.06947815e-01 
188 1463.28 3.45324787e+00 1.03597436e-01 
187 1464.66 3.32960008e+00 9.98880023e-02 
186 1466.04 3.37266764e+00 1.01180029e-01 
185 1467.41 3.17630005e+00 9.52890014e-02 
184 1468.79 3.05387090e+00 9.16161270e-02 
183 1470.17 3.00960192e+00 9.02880576e-02 
182 1471.54 3.03790444e+00 9.11371333e-02 
181 1472.92 3.19881156e+00 9.59643467e-02 
180 1474.29 3.37148550e+00 1.01144565e-01 
179 1475.66 3.41571871e+00 1.02471561e-01 
178 1477.03 3.33947979e+00 1.00184394e-01 
177 1478.40 3.30423622e+00 9.91270867e-02 
176 1479.77 3.40550151e+00 1.02165045e-01 
175 1481.14 3.48254100e+00 1.04476230e-01 
174 1482.51 3.61186738e+00 1.08356021e-01 
173 1483.87 3.61122199e+00 1.08336660e-01 
172 1485.24 3.61915702e+00 1.08574711e-01 
171 1486.60 3.59539934e+00 1.07861980e-01 
170 1487.96 3.67884795e+00 1.10365438e-01 
169 1489.32 3.74644677e+00 1.12393403e-01 
168 1490.69 3.93288201e+00 1.17986460e-01 
167 1492.04 3.96676109e+00 1.19002833e-01 
166 1493.40 4.00445769e+00 1.20133731e-01 
165 1494.76 4.01319616e+00 1.20395885e-01 
164 1496.12 4.04638452e+00 1.21391535e-01 
163 1497.47 4.05674088e+00 1.21702226e-01 
162 1498.83 4.14007595e+00 1.24202278e-01 
161 1500.18 3.99608716e+00 1.19882615e-01 
160 1501.53 3.90562380e+00 1.17168714e-01 
159 1502.89 3.79505027e+00 1.13851508e-01 
158 1504.24 3.82275663e+00 1.14682699e-01 
157 1505.59 3.86292211e+00 1.15887663e-01 
156 1506.93 3.99763705e+00 1.19929111e-01 
155 1508.28 4.05128944e+00 1.21538683e-01 
154 1509.63 4.10441633e+00 1.23132490e-01 
153 1510.97 4.09095355e+00 1.22728607e-01 
152 1512.32 4.17041651e+00 1.25112495e-01 
151 1513.66 4.12138147e+00 1.23641444e-01 
150 1515.00 4.16781009e+00 1.25034303e-01 
149 1516.34 4.13823412e+00 1.24147024e-01 
148 1517.69 4.14245169e+00 1.24273551e-01 
147 1519.02 4.06849342e+00 1.22054803e-01 
146 1520.36 4.08053078e+00 1.22415923e-01 
145 1521.70 4.03480579e+00 1.21044174e-01 
144 1523.04 4.08583786e+00 1.22575136e-01 
143 1524.37 4.04987252e+00 1.21496176e-01 
142 1525.71 4.10063005e+00 1.23018901e-01 
141 1527.04 4.04892156e+00 1.21467647e-01 
140 1528.37 4.05046281e+00 1.21513884e-01 
139 1529.70 3.97915327e+00 1.19374598e-01 
138 1531.03 3.99931296e+00 1.19979389e-01 
137 1532.36 3.95848615e+00 1.18754584e-01 
136 1533.69 3.99761602e+00 1.19928481e-01 
135 1535.02 3.92757060e+00 1.17827118e-01 
134 1536.34 3.96018258e+00 1.18805477e-01 
133 1537.67 3.90435058e+00 1.17130518e-01 
132 1538.99 3.93450078e+00 1.18035024e-01 
131 1540.31 3.87967326e+00 1.16390198e-01 
130 1541.64 3.92868358e+00 1.17860507e-01 
129 1542.96 3.90042736e+00 1.17012821e-01 
128 1544.28 3.93707394e+00 1.18112218e-01 
127 1545.60 3.86599366e+00 1.15979810e-01 
126 1546.91 3.91856671e+00 1.17557001e-01 
125 1548.23 3.83621499e+00 1.15086450e-01 
124 1549.55 3.87824817e+00 1.16347445e-01 
123 1550.86 3.81306859e+00 1.14392058e-01 
122 1552.18 3.83991844e+00 1.15197553e-01 
121 1553.49 3.78961273e+00 1.13688382e-01 
120 1554.80 3.82575044e+00 1.14772513e-01 
119 1556.11 3.73016992e+00 1.11905098e-01 
118 1557.42 3.75949656e+00 1.12784897e-01 
117 1558.73 3.69670045e+00 1.10901013e-01 
116 1560.04 3.72156730e+00 1.11647019e-01 
115 1561.34 3.64181467e+00 1.09254440e-01 
114 1562.65 3.69043276e+00 1.10712983e-01 
113 1563.95 3.61834022e+00 1.08550207e-01 
112 1565.26 3.67818866e+00 1.10345660e-01 
111 1566.56 3.57649174e+00 1.07294752e-01 
110 1567.86 3.58776368e+00 1.07632910e-01 
109 1569.16 3.47764170e+00 1.04329251e-01 
108 1570.46 3.46285140e+00 1.03885542e-01 
107 1571.76 3.35905712e+00 1.00771714e-01 
106 1573.05 3.32882140e+00 9.98646421e-02 
105 1574.35 3.20639770e+00 9.61919311e-02 
104 1575.64 3.24132216e+00 9.72396648e-02 
103 1576.94 3.20923371e+00 9.62770113e-02 
102 1578.23 3.29330679e+00 9.87992036e-02 
101 1579.52 3.29412743e+00 9.88238229e-02 
100 1580.81 3.36493336e+00 1.00948001e-01 
99 1582.10 3.31671659e+00 9.95014978e-02 
98 1583.39 3.36482578e+00 1.00944773e-01 
97 1584.68 3.26859473e+00 9.80578420e-02 
96 1585.97 3.25853706e+00 9.77561119e-02 
95 1587.25 3.15146888e+00 9.45440665e-02 
94 1588.54 3.16157610e+00 9.48472830e-02 
93 1589.82 3.09262141e+00 9.27786423e-02 
92 1591.10 3.17670079e+00 9.53010237e-02 
91 1592.38 3.13770996e+00 9.41312989e-02 
90 1593.66 3.20049226e+00 9.60147679e-02 
89 1594.94 3.12949819e+00 9.38849458e-02 
88 1596.22 3.13927739e+00 9.41783217e-02 
87 1597.50 3.02958941e+00 9.08876822e-02 
86 1598.77 3.02008526e+00 9.06025577e-02 
85 1600.05 2.91408596e+00 8.74225787e-02 
84 1601.32 2.91849267e+00 8.75547801e-02 
83 1602.59 2.85422407e+00 8.56267222e-02 
82 1603.86 2.91291582e+00 8.73874746e-02 
81 1605.13 2.80078090e+00 8.40234269e-02 
80 1606.40 2.84290140e+00 8.52870421e-02 
79 1607.67 2.76059017e+00 8.28177051e-02 
78 1608.94 2.80529437e+00 8.41588311e-02 
77 1610.20 2.75842277e+00 8.27526832e-02 
76 1611.47 2.83015942e+00 8.49047825e-02 
75 1612.73 2.78217231e+00 8.34651694e-02 
74 1614.00 2.82732717e+00 8.48198150e-02 
73 1615.26 2.74190766e+00 8.22572297e-02 
72 1616.52 2.76500282e+00 8.29500845e-02 
71 1617.78 2.67017777e+00 8.01053332e-02 
70 1619.03 2.69521823e+00 8.08565470e-02 
69 1620.29 2.63609963e+00 7.90829888e-02 
68 1621.55 2.69149846e+00 8.07449538e-02 
67 1622.80 2.64259082e+00 7.92777246e-02 
66 1624.06 2.69956012e+00 8.09868036e-02 
65 1625.31 2.60713839e+00 7.82141516e-02 
64 1626.56 2.66982131e+00 8.00946393e-02 
63 1627.81 2.56239640e+00 7.68718920e-02 
62 1629.06 2.57773915e+00 7.73321745e-02 
61 1630.31 2.48103077e+00 7.44309232e-02 
60 1631.56 2.50322076e+00 7.50966229e-02 
59 1632.80 2.42592211e+00 7.27776633e-02 
58 1634.05 2.44705476e+00 7.34116429e-02 
57 1635.29 2.34649718e+00 7.03949155e-02 
56 1636.53 2.35083954e+00 7.05251863e-02 
55 1637.77 2.22479369e+00 6.67438106e-02 
54 1639.01 2.24620562e+00 6.73861685e-02 
53 1640.25 2.18373258e+00 6.55119774e-02 
52 1641.49 2.20202963e+00 6.60608889e-02 
51 1642.73 2.14640253e+00 6.43920758e-02 
