% C0 (TOA Count Rate, /ms) for 4STAR VIS spectrometer (1044 channels) derived from 4STAR_20160908starsun.mat and recorded on 2017-06-22 00:55:04.
% Using the MLO from September 2016 high altitude AOD for stratospheric AOD component, calculating the c0 from the AOD at low airmass. 
Pix Wavelength C0 C0err
0 173.18 0.00000000e+00 0.00000000e+00 
1 173.98 -1.00000000e+00 0.00000000e+00 
2 174.77 -1.00000000e+00 0.00000000e+00 
3 175.56 -1.00000000e+00 0.00000000e+00 
4 176.36 -1.00000000e+00 0.00000000e+00 
5 177.15 -1.00000000e+00 0.00000000e+00 
6 177.94 -1.00000000e+00 0.00000000e+00 
7 178.74 -1.00000000e+00 0.00000000e+00 
8 179.53 -1.00000000e+00 0.00000000e+00 
9 180.33 -1.00000000e+00 0.00000000e+00 
10 181.12 -1.00000000e+00 0.00000000e+00 
11 181.92 -1.00000000e+00 0.00000000e+00 
12 182.71 -1.00000000e+00 0.00000000e+00 
13 183.51 -1.00000000e+00 0.00000000e+00 
14 184.30 -1.00000000e+00 0.00000000e+00 
15 185.10 -1.00000000e+00 0.00000000e+00 
16 185.89 -1.00000000e+00 0.00000000e+00 
17 186.69 -1.00000000e+00 0.00000000e+00 
18 187.49 -1.00000000e+00 0.00000000e+00 
19 188.28 -1.00000000e+00 0.00000000e+00 
20 189.08 -1.00000000e+00 0.00000000e+00 
21 189.88 -1.00000000e+00 0.00000000e+00 
22 190.67 -1.00000000e+00 0.00000000e+00 
23 191.47 -1.00000000e+00 0.00000000e+00 
24 192.27 -1.00000000e+00 0.00000000e+00 
25 193.07 -1.00000000e+00 0.00000000e+00 
26 193.86 -1.00000000e+00 0.00000000e+00 
27 194.66 -1.00000000e+00 0.00000000e+00 
28 195.46 -1.00000000e+00 0.00000000e+00 
29 196.26 -1.00000000e+00 0.00000000e+00 
30 197.05 -1.00000000e+00 0.00000000e+00 
31 197.85 -1.00000000e+00 0.00000000e+00 
32 198.65 -1.00000000e+00 0.00000000e+00 
33 199.45 -1.00000000e+00 0.00000000e+00 
34 200.25 -1.00000000e+00 0.00000000e+00 
35 201.05 -1.00000000e+00 0.00000000e+00 
36 201.85 -1.00000000e+00 0.00000000e+00 
37 202.65 -1.00000000e+00 0.00000000e+00 
38 203.44 -1.00000000e+00 0.00000000e+00 
39 204.24 -1.00000000e+00 0.00000000e+00 
40 205.04 -1.00000000e+00 0.00000000e+00 
41 205.84 -1.00000000e+00 0.00000000e+00 
42 206.64 -1.00000000e+00 0.00000000e+00 
43 207.44 -1.00000000e+00 0.00000000e+00 
44 208.24 -1.00000000e+00 0.00000000e+00 
45 209.04 -1.00000000e+00 0.00000000e+00 
46 209.84 -1.00000000e+00 -1.00000000e+00 
47 210.64 -1.00000000e+00 -1.00000000e+00 
48 211.44 -1.00000000e+00 -1.00000000e+00 
49 212.24 2.35298254e+35 -1.00000000e+00 
50 213.04 3.10916316e+34 -1.00000000e+00 
51 213.85 4.11200910e+33 -1.00000000e+00 
52 214.65 5.49736676e+32 -1.00000000e+00 
53 215.45 7.31624691e+31 -1.00000000e+00 
54 216.25 9.61053714e+30 -1.00000000e+00 
55 217.05 1.28955074e+30 -1.00000000e+00 
56 217.85 1.72881171e+29 -1.00000000e+00 
57 218.65 2.31414989e+28 -1.00000000e+00 
58 219.46 3.09667913e+27 -1.00000000e+00 
59 220.26 4.20401888e+26 -1.00000000e+00 
60 221.06 5.45883522e+25 -1.00000000e+00 
61 221.86 7.37931502e+24 -1.00000000e+00 
62 222.66 9.83650074e+23 -1.00000000e+00 
63 223.47 1.31020342e+23 -1.00000000e+00 
64 224.27 1.79470798e+22 -1.00000000e+00 
65 225.07 2.43436251e+21 -1.00000000e+00 
66 225.87 3.24226065e+20 -1.00000000e+00 
67 226.68 4.25800040e+19 -1.00000000e+00 
68 227.48 6.28891074e+18 -1.00000000e+00 
69 228.28 1.03704205e+18 1.82354845e+17 
70 229.08 2.36484868e+17 3.91417678e+16 
71 229.89 9.82832399e+16 1.63443939e+16 
72 230.69 9.39203262e+16 1.58482919e+16 
73 231.49 2.23065449e+17 3.73858821e+16 
74 232.30 1.09945603e+18 1.94690060e+17 
75 233.10 8.31042114e+18 -1.00000000e+00 
76 233.90 7.36865909e+19 -1.00000000e+00 
77 234.71 7.38118446e+20 -1.00000000e+00 
78 235.51 7.61478871e+21 -1.00000000e+00 
79 236.32 8.06828430e+22 -1.00000000e+00 
80 237.12 8.55437492e+23 -1.00000000e+00 
81 237.92 9.18459929e+24 -1.00000000e+00 
82 238.73 1.01214296e+26 -1.00000000e+00 
83 239.53 1.08269342e+27 -1.00000000e+00 
84 240.34 1.17500128e+28 -1.00000000e+00 
85 241.14 1.16145659e+29 -1.00000000e+00 
86 241.94 1.02978870e+30 -1.00000000e+00 
87 242.75 8.99149761e+30 -1.00000000e+00 
88 243.55 7.01273303e+31 -1.00000000e+00 
89 244.36 5.02331735e+32 -1.00000000e+00 
90 245.16 3.35763042e+33 -1.00000000e+00 
91 245.97 1.96560293e+34 -1.00000000e+00 
92 246.77 9.79789729e+34 -1.00000000e+00 
93 247.58 4.52298645e+35 -1.00000000e+00 
94 248.38 -1.00000000e+00 -1.00000000e+00 
95 249.19 -1.00000000e+00 -1.00000000e+00 
96 249.99 -1.00000000e+00 -1.00000000e+00 
97 250.80 -1.00000000e+00 -1.00000000e+00 
98 251.60 -1.00000000e+00 -1.00000000e+00 
99 252.41 -1.00000000e+00 -1.00000000e+00 
100 253.21 -1.00000000e+00 -1.00000000e+00 
101 254.02 -1.00000000e+00 -1.00000000e+00 
102 254.82 -1.00000000e+00 -1.00000000e+00 
103 255.63 -1.00000000e+00 -1.00000000e+00 
104 256.44 -1.00000000e+00 -1.00000000e+00 
105 257.24 -1.00000000e+00 -1.00000000e+00 
106 258.05 -1.00000000e+00 -1.00000000e+00 
107 258.85 -1.00000000e+00 -1.00000000e+00 
108 259.66 -1.00000000e+00 -1.00000000e+00 
109 260.46 -1.00000000e+00 -1.00000000e+00 
110 261.27 -1.00000000e+00 -1.00000000e+00 
111 262.08 2.65247034e+35 -1.00000000e+00 
112 262.88 4.81754666e+34 -1.00000000e+00 
113 263.69 7.96859032e+33 -1.00000000e+00 
114 264.49 1.35791701e+33 -1.00000000e+00 
115 265.30 2.01189125e+32 -1.00000000e+00 
116 266.11 2.37772183e+31 -1.00000000e+00 
117 266.91 2.38990067e+30 -1.00000000e+00 
118 267.72 2.19246064e+29 -1.00000000e+00 
119 268.53 1.73782768e+28 -1.00000000e+00 
120 269.33 1.45884659e+27 -1.00000000e+00 
121 270.14 1.45791748e+26 -1.00000000e+00 
122 270.95 1.30459121e+25 -1.00000000e+00 
123 271.75 1.08437196e+24 -1.00000000e+00 
124 272.56 8.29916044e+22 -1.00000000e+00 
125 273.37 5.66649154e+21 -1.00000000e+00 
126 274.17 3.84549143e+20 -1.00000000e+00 
127 274.98 2.92910271e+19 -1.00000000e+00 
128 275.79 2.63101285e+18 4.60389295e+17 
129 276.59 2.49960448e+17 4.19936905e+16 
130 277.40 2.43190368e+16 3.81120822e+15 
131 278.21 2.39516260e+15 3.56901884e+14 
132 279.01 2.51807037e+14 3.53591949e+13 
133 279.82 2.75234255e+13 3.61302301e+12 
134 280.63 2.97490553e+12 3.76485511e+11 
135 281.43 3.40334117e+11 4.06697165e+10 
136 282.24 4.66110136e+10 5.19562752e+09 
137 283.05 7.64551014e+09 8.05503424e+08 
138 283.86 1.34527680e+09 1.32815712e+08 
139 284.66 2.38747024e+08 2.13579960e+07 
140 285.47 4.87758280e+07 4.22632950e+06 
141 286.28 1.18615850e+07 9.78250375e+05 
142 287.09 3.03940450e+06 2.24621203e+05 
143 287.89 7.93905938e+05 5.97901484e+04 
144 288.70 2.25829078e+05 1.56751973e+04 
145 289.51 7.36547500e+04 4.71431787e+03 
146 290.32 2.73314316e+04 1.68850134e+03 
147 291.12 1.04140146e+04 6.49662598e+02 
148 291.93 4.17126953e+03 2.33704590e+02 
149 292.74 1.82399268e+03 9.79149628e+01 
150 293.55 8.54397644e+02 4.75635605e+01 
151 294.35 4.39156616e+02 2.18749981e+01 
152 295.16 2.32992645e+02 1.15243692e+01 
153 295.97 1.28909561e+02 6.09956217e+00 
154 296.78 7.55279846e+01 3.54537559e+00 
155 297.58 4.63669930e+01 2.01933241e+00 
156 298.39 2.99817028e+01 1.42086601e+00 
157 299.20 2.04719505e+01 8.94177914e-01 
158 300.01 1.41360512e+01 6.25344992e-01 
159 300.81 1.05111494e+01 4.76347506e-01 
160 301.62 8.09180832e+00 3.42714578e-01 
161 302.43 6.14750242e+00 2.51279533e-01 
162 303.24 4.93073273e+00 2.19798282e-01 
163 304.04 4.16279650e+00 1.75019503e-01 
164 304.85 3.45104313e+00 1.33077979e-01 
165 305.66 2.95954466e+00 1.20965533e-01 
166 306.47 2.54206562e+00 1.04668684e-01 
167 307.28 2.24149346e+00 8.86577889e-02 
168 308.08 2.00779963e+00 7.97061175e-02 
169 308.89 1.81557655e+00 6.98410645e-02 
170 309.70 1.66625965e+00 6.33546859e-02 
171 310.51 1.53691387e+00 5.62918037e-02 
172 311.32 1.42585742e+00 5.51325232e-02 
173 312.12 1.33992457e+00 5.09306677e-02 
174 312.93 1.24866724e+00 4.76074107e-02 
175 313.74 1.20931673e+00 5.04422449e-02 
176 314.55 1.17490196e+00 4.14058156e-02 
177 315.36 1.08423626e+00 3.95988822e-02 
178 316.16 1.07723737e+00 4.08856682e-02 
179 316.97 1.07789779e+00 3.81289609e-02 
180 317.78 1.03450620e+00 3.89185920e-02 
181 318.59 1.02622139e+00 3.52419019e-02 
182 319.40 1.02290452e+00 3.58629115e-02 
183 320.20 1.02183318e+00 3.24088484e-02 
184 321.01 1.01113665e+00 3.39815915e-02 
185 321.82 1.02207577e+00 2.97382511e-02 
186 322.63 1.02928901e+00 3.11589241e-02 
187 323.43 1.02361560e+00 2.92458944e-02 
188 324.24 1.03067648e+00 2.83985659e-02 
189 325.05 1.06081760e+00 2.96967756e-02 
190 325.86 1.07484472e+00 2.90860347e-02 
191 326.67 1.08372974e+00 2.91769877e-02 
192 327.48 1.10097563e+00 2.96778828e-02 
193 328.28 1.12797427e+00 3.00183073e-02 
194 329.09 1.17395175e+00 3.08796167e-02 
195 329.90 1.21734357e+00 2.86752563e-02 
196 330.71 1.27437675e+00 3.09103783e-02 
197 331.52 1.36378801e+00 2.95958016e-02 
198 332.32 1.53682220e+00 3.15323435e-02 
199 333.13 1.82465196e+00 3.04325148e-02 
200 333.94 2.35386920e+00 3.58547419e-02 
201 334.75 3.18763208e+00 3.73921134e-02 
202 335.55 4.33281040e+00 4.32104729e-02 
203 336.36 5.91160536e+00 4.57413122e-02 
204 337.17 8.36714745e+00 5.57867959e-02 
205 337.98 1.17724133e+01 6.61096796e-02 
206 338.79 1.57392912e+01 7.77080134e-02 
207 339.60 2.01948605e+01 7.96340480e-02 
208 340.40 2.41847343e+01 8.94192085e-02 
209 341.21 2.74748726e+01 9.63227898e-02 
210 342.02 3.13684158e+01 1.03263065e-01 
211 342.83 3.48471222e+01 1.02259107e-01 
212 343.63 3.57473602e+01 1.09080605e-01 
213 344.44 3.69230652e+01 1.10514626e-01 
214 345.25 4.08878326e+01 1.16716065e-01 
215 346.06 4.47310829e+01 1.19200699e-01 
216 346.87 4.72187347e+01 1.27969325e-01 
217 347.67 4.89860268e+01 1.23131268e-01 
218 348.48 5.05801353e+01 1.36223048e-01 
219 349.29 5.34835243e+01 1.30195230e-01 
220 350.10 5.86281815e+01 1.42358527e-01 
221 350.90 6.21908684e+01 1.41896799e-01 
222 351.71 6.22857094e+01 1.38869181e-01 
223 352.52 6.33095360e+01 1.41624555e-01 
224 353.33 6.86676483e+01 1.50785521e-01 
225 354.14 7.56020355e+01 1.65253028e-01 
226 354.94 7.86991196e+01 1.61879465e-01 
227 355.75 7.72912903e+01 1.61053568e-01 
228 356.56 7.26800537e+01 1.47502631e-01 
229 357.37 6.81379242e+01 1.49357677e-01 
230 358.18 6.69534378e+01 1.45198420e-01 
231 358.98 7.48532028e+01 1.57594949e-01 
232 359.79 8.64195938e+01 1.69627070e-01 
233 360.60 8.80500488e+01 1.55375332e-01 
234 361.41 8.64053497e+01 1.63854077e-01 
235 362.21 9.09997101e+01 1.65681362e-01 
236 363.02 9.63702087e+01 1.71318084e-01 
237 363.83 9.95366440e+01 1.62229106e-01 
238 364.64 1.04262688e+02 1.77675217e-01 
239 365.44 1.13702415e+02 1.92297399e-01 
240 366.25 1.22103294e+02 2.02018604e-01 
241 367.06 1.23255737e+02 1.99727595e-01 
242 367.87 1.21229561e+02 1.87380344e-01 
243 368.67 1.22902000e+02 1.96036950e-01 
244 369.48 1.28586014e+02 1.97969481e-01 
245 370.29 1.29966766e+02 2.06580445e-01 
246 371.10 1.28741287e+02 1.92875177e-01 
247 371.90 1.25773628e+02 1.98215663e-01 
248 372.71 1.18908813e+02 1.85105711e-01 
249 373.52 1.12428505e+02 1.82894349e-01 
250 374.33 1.11620659e+02 1.89879477e-01 
251 375.13 1.19680298e+02 1.90235913e-01 
252 375.94 1.30716309e+02 2.01367915e-01 
253 376.75 1.42271057e+02 1.99406460e-01 
254 377.56 1.56391968e+02 2.10155979e-01 
255 378.36 1.60735840e+02 2.27587193e-01 
256 379.17 1.52205566e+02 2.16027007e-01 
257 379.98 1.48839676e+02 2.01700345e-01 
258 380.78 1.49495010e+02 2.15621799e-01 
259 381.59 1.36770676e+02 2.06912249e-01 
260 382.40 1.16103485e+02 1.80738539e-01 
261 383.20 1.06205505e+02 1.79474220e-01 
262 384.01 1.15389145e+02 1.91799283e-01 
263 384.82 1.31288895e+02 1.99856594e-01 
264 385.63 1.37568726e+02 1.99101403e-01 
265 386.43 1.38559540e+02 2.01262847e-01 
266 387.24 1.39541595e+02 1.99082792e-01 
267 388.05 1.41211395e+02 2.10521013e-01 
268 388.85 1.49417938e+02 2.19230071e-01 
269 389.66 1.63406616e+02 2.08746165e-01 
270 390.47 1.74543533e+02 2.33438224e-01 
271 391.27 1.75952896e+02 2.25854442e-01 
272 392.08 1.57326859e+02 2.24892899e-01 
273 392.89 1.25998505e+02 1.90880865e-01 
274 393.69 1.17414711e+02 1.85339183e-01 
275 394.50 1.41474792e+02 2.03972787e-01 
276 395.31 1.59802521e+02 2.05345005e-01 
277 396.11 1.47917496e+02 2.17413798e-01 
278 396.92 1.37258087e+02 2.00629473e-01 
279 397.73 1.62280487e+02 2.27829397e-01 
280 398.53 2.01503204e+02 2.56612867e-01 
281 399.34 2.25236771e+02 2.75900871e-01 
282 400.15 2.36082504e+02 2.80722439e-01 
283 400.95 2.43618301e+02 2.64501929e-01 
284 401.76 2.49922348e+02 2.91921228e-01 
285 402.57 2.51298828e+02 2.73084044e-01 
286 403.37 2.49156891e+02 2.90159345e-01 
287 404.18 2.47497650e+02 2.92224109e-01 
288 404.99 2.45915970e+02 2.87399113e-01 
289 405.79 2.44178604e+02 2.99167424e-01 
290 406.60 2.44251450e+02 2.83126414e-01 
291 407.40 2.49887161e+02 3.02399486e-01 
292 408.21 2.59505524e+02 3.03761810e-01 
293 409.02 2.63471497e+02 3.06548566e-01 
294 409.82 2.59083740e+02 2.83196867e-01 
295 410.63 2.61193390e+02 3.00216407e-01 
296 411.43 2.73049286e+02 3.20589751e-01 
297 412.24 2.80444061e+02 3.35123897e-01 
298 413.05 2.80569183e+02 3.26934695e-01 
299 413.85 2.80108734e+02 3.15909743e-01 
300 414.66 2.80222687e+02 3.23370904e-01 
301 415.46 2.80946411e+02 3.26403499e-01 
302 416.27 2.81261383e+02 3.10312957e-01 
303 417.08 2.77266235e+02 3.03186923e-01 
304 417.88 2.71766632e+02 3.03544581e-01 
305 418.69 2.69595276e+02 2.96676308e-01 
306 419.49 2.69873260e+02 3.03185940e-01 
307 420.30 2.73123108e+02 3.18988144e-01 
308 421.11 2.76861816e+02 3.09218764e-01 
309 421.91 2.74672394e+02 3.10273856e-01 
310 422.72 2.69500153e+02 3.08357179e-01 
311 423.52 2.69634857e+02 3.02850127e-01 
312 424.33 2.73339996e+02 3.04740578e-01 
313 425.13 2.75487244e+02 3.10294986e-01 
314 425.94 2.76066895e+02 3.05284321e-01 
315 426.74 2.76026642e+02 3.23264271e-01 
316 427.55 2.75924377e+02 3.14392805e-01 
317 428.36 2.73794617e+02 3.13564867e-01 
318 429.16 2.63800293e+02 3.08884203e-01 
319 429.96 2.51471024e+02 2.95957416e-01 
320 430.77 2.57708679e+02 3.08609098e-01 
321 431.58 2.87725281e+02 3.18587780e-01 
322 432.38 3.18608002e+02 3.26883852e-01 
323 433.19 3.32856903e+02 3.60696286e-01 
324 433.99 3.40069000e+02 3.67543012e-01 
325 434.80 3.54452148e+02 3.71869862e-01 
326 435.60 3.75590729e+02 3.80531579e-01 
327 436.41 3.90606445e+02 3.76243412e-01 
328 437.21 3.91658325e+02 3.92972142e-01 
329 438.02 3.86226532e+02 3.94517750e-01 
330 438.82 3.88580292e+02 3.94100100e-01 
331 439.63 4.01487976e+02 3.90088469e-01 
332 440.43 4.19063782e+02 4.08497393e-01 
333 441.24 4.37482239e+02 4.24130231e-01 
334 442.04 4.54452820e+02 4.44266796e-01 
335 442.85 4.65799652e+02 4.57895994e-01 
336 443.65 4.72404358e+02 4.23979342e-01 
337 444.45 4.75474609e+02 4.40433592e-01 
338 445.26 4.74774200e+02 4.64387178e-01 
339 446.06 4.77633057e+02 4.53278810e-01 
340 446.87 4.89273590e+02 4.47918981e-01 
341 447.67 5.04199982e+02 4.66835886e-01 
342 448.48 5.14732788e+02 4.68197435e-01 
343 449.28 5.24340942e+02 4.99252290e-01 
344 450.09 5.35947937e+02 4.80794936e-01 
345 450.89 5.42971863e+02 4.92329955e-01 
346 451.70 5.37982483e+02 5.08559585e-01 
347 452.50 5.26143433e+02 4.72079873e-01 
348 453.30 5.20187378e+02 5.03685176e-01 
349 454.11 5.23432129e+02 5.08205414e-01 
350 454.91 5.31432190e+02 5.18459618e-01 
351 455.72 5.40048279e+02 4.82028782e-01 
352 456.52 5.47561646e+02 5.02282441e-01 
353 457.32 5.50456177e+02 4.89227325e-01 
354 458.13 5.48237122e+02 4.66647625e-01 
355 458.93 5.46155823e+02 5.15246511e-01 
356 459.74 5.48817993e+02 4.93696958e-01 
357 460.54 5.55802551e+02 5.07397890e-01 
358 461.34 5.63960388e+02 5.08898556e-01 
359 462.15 5.69149658e+02 5.10958374e-01 
360 462.95 5.69028564e+02 5.01271904e-01 
361 463.76 5.64614563e+02 4.83554155e-01 
362 464.56 5.60004150e+02 4.69876826e-01 
363 465.36 5.57326233e+02 5.06614804e-01 
364 466.17 5.55884460e+02 5.04926145e-01 
365 466.97 5.55849915e+02 4.97638047e-01 
366 467.77 5.58381531e+02 4.82504189e-01 
367 468.58 5.61683044e+02 4.99883443e-01 
368 469.38 5.61814331e+02 4.83212382e-01 
369 470.18 5.61357422e+02 4.98104215e-01 
370 470.99 5.66593872e+02 5.10713398e-01 
371 471.79 5.76127563e+02 4.93575871e-01 
372 472.59 5.83923706e+02 5.57729363e-01 
373 473.40 5.88657349e+02 5.28813362e-01 
374 474.20 5.92386230e+02 5.49415708e-01 
375 475.00 5.95152954e+02 5.45802712e-01 
376 475.81 5.96411377e+02 5.40351808e-01 
377 476.61 5.99584229e+02 5.15557408e-01 
378 477.41 6.06199585e+02 5.24089217e-01 
379 478.21 6.12424316e+02 5.40968001e-01 
380 479.02 6.16242188e+02 5.19033909e-01 
381 479.82 6.18628357e+02 5.69171846e-01 
382 480.62 6.21634216e+02 5.38314164e-01 
383 481.43 6.23496948e+02 5.57415128e-01 
384 482.23 6.23020325e+02 5.50720334e-01 
385 483.03 6.19034241e+02 5.59070826e-01 
386 483.84 6.09981812e+02 5.39371014e-01 
387 484.64 5.91415222e+02 5.36320925e-01 
388 485.44 5.66505981e+02 4.88026559e-01 
389 486.24 5.50850769e+02 4.69327658e-01 
390 487.04 5.54434875e+02 4.66564983e-01 
391 487.85 5.72256958e+02 4.86347377e-01 
392 488.65 5.91682983e+02 5.24737775e-01 
393 489.45 6.05326782e+02 5.06378770e-01 
394 490.26 6.11009460e+02 5.19207299e-01 
395 491.06 6.09007141e+02 5.33879399e-01 
396 491.86 6.04429810e+02 5.42445838e-01 
397 492.66 6.04833069e+02 5.44774950e-01 
398 493.46 6.11980957e+02 5.49034715e-01 
399 494.27 6.19996521e+02 5.47376096e-01 
400 495.07 6.24405090e+02 5.85797668e-01 
401 495.87 6.26167725e+02 5.68046868e-01 
402 496.67 6.24150024e+02 5.44902861e-01 
403 497.48 6.19727417e+02 5.54157794e-01 
404 498.28 6.14859436e+02 5.65375030e-01 
405 499.08 6.09728760e+02 5.71401656e-01 
406 499.88 6.04112549e+02 5.53368449e-01 
407 500.68 5.98468323e+02 5.32383740e-01 
408 501.48 5.95619141e+02 5.34097075e-01 
409 502.29 5.98440308e+02 5.39946437e-01 
410 503.09 6.03411499e+02 5.26276231e-01 
411 503.89 6.08890625e+02 5.32597601e-01 
412 504.69 6.15580811e+02 5.15470922e-01 
413 505.49 6.21778625e+02 5.49777985e-01 
414 506.29 6.23558044e+02 5.21716833e-01 
415 507.09 6.20082703e+02 5.14466822e-01 
416 507.90 6.16140320e+02 5.18853903e-01 
417 508.70 6.15210510e+02 5.31048298e-01 
418 509.50 6.16220947e+02 5.63530505e-01 
419 510.30 6.17438110e+02 5.56418002e-01 
420 511.10 6.16982483e+02 5.39180398e-01 
421 511.90 6.13660095e+02 5.72252274e-01 
422 512.71 6.06992249e+02 5.87609947e-01 
423 513.51 5.99371399e+02 5.47584474e-01 
424 514.31 5.93856750e+02 5.42196870e-01 
425 515.11 5.85890198e+02 5.45394123e-01 
426 515.91 5.70632324e+02 5.55506766e-01 
427 516.71 5.53262085e+02 5.27988434e-01 
428 517.51 5.43249512e+02 5.16451657e-01 
429 518.31 5.47016907e+02 4.96790379e-01 
430 519.11 5.60869751e+02 4.87787157e-01 
431 519.91 5.74997925e+02 5.04331470e-01 
432 520.71 5.85423157e+02 5.20075142e-01 
433 521.52 5.89595398e+02 5.34224749e-01 
434 522.32 5.91323120e+02 5.64657986e-01 
435 523.12 5.95069458e+02 5.23840070e-01 
436 523.92 5.99903076e+02 5.42274535e-01 
437 524.72 6.00658752e+02 5.41276336e-01 
438 525.52 5.91928833e+02 5.41564465e-01 
439 526.32 5.79493591e+02 5.15971899e-01 
440 527.12 5.75936218e+02 5.52836716e-01 
441 527.92 5.84264465e+02 5.51276982e-01 
442 528.72 5.98411682e+02 5.59090793e-01 
443 529.52 6.09600830e+02 5.80109239e-01 
444 530.32 6.14320801e+02 5.78011155e-01 
445 531.12 6.12172913e+02 5.63166022e-01 
446 531.92 6.05520325e+02 5.47112346e-01 
447 532.72 5.98772766e+02 5.78687966e-01 
448 533.52 5.97349365e+02 5.44378042e-01 
449 534.32 6.02097229e+02 5.34053981e-01 
450 535.12 6.07430420e+02 5.39952278e-01 
451 535.92 6.08369507e+02 5.49530208e-01 
452 536.72 6.05978271e+02 5.42510569e-01 
453 537.52 6.02833069e+02 5.47611237e-01 
454 538.32 5.98895752e+02 5.22166967e-01 
455 539.12 5.93277100e+02 5.72319925e-01 
456 539.92 5.87445313e+02 5.32052159e-01 
457 540.72 5.85108765e+02 5.34636438e-01 
458 541.52 5.87037781e+02 5.59458315e-01 
459 542.32 5.91434448e+02 5.73442638e-01 
460 543.12 5.95378418e+02 5.87389946e-01 
461 543.92 5.98277283e+02 5.76612175e-01 
462 544.72 6.00106262e+02 5.63712716e-01 
463 545.52 5.99791809e+02 5.45953274e-01 
464 546.32 5.96960938e+02 5.29274583e-01 
465 547.12 5.93260193e+02 5.38266420e-01 
466 547.91 5.91102722e+02 5.47253132e-01 
467 548.71 5.90989807e+02 5.17659664e-01 
