% C0 (TOA Count Rate, /ms) for 4STAR VIS spectrometer (1044 channels) derived from 20160426starsun.mat and recorded on 2016-05-03 14:49:03.
% Data outside 2.0x the STD of 501 nm Langley residuals were screened out.
Pix Wavelength C0 C0err
0 173.18 -1.00000000e+00 -1.00000000e+00 
1 173.97 2.33296225e+06 6.99888675e+04 
2 174.77 2.77710329e+06 8.33130988e+04 
3 175.56 1.84078812e+06 5.52236436e+04 
4 176.36 1.29328990e+08 3.87986970e+06 
5 177.15 1.41216146e+08 4.23648437e+06 
6 177.94 1.54774981e+08 4.64324944e+06 
7 178.74 1.64157991e+08 4.92473972e+06 
8 179.53 1.82775314e+08 5.48325941e+06 
9 180.33 2.08891932e+08 6.26675796e+06 
10 181.12 2.10965012e+08 6.32895037e+06 
11 181.92 1.97623309e+08 5.92869926e+06 
12 182.71 1.05177202e+08 3.15531605e+06 
13 183.51 3.01514048e+07 9.04542144e+05 
14 184.30 1.09551662e+07 3.28654986e+05 
15 185.10 4.67337031e+06 1.40201109e+05 
16 185.89 2.49105769e+06 7.47317308e+04 
17 186.69 1.56614912e+06 4.69844736e+04 
18 187.49 1.14022318e+06 3.42066954e+04 
19 188.28 9.30506814e+05 2.79152044e+04 
20 189.08 7.94500521e+05 2.38350156e+04 
21 189.88 7.56033808e+05 2.26810142e+04 
22 190.67 7.53595726e+05 2.26078718e+04 
23 191.47 8.66513773e+05 2.59954132e+04 
24 192.27 1.06122585e+06 3.18367755e+04 
25 193.07 1.29716292e+06 3.89148875e+04 
26 193.86 1.83718888e+06 5.51156664e+04 
27 194.66 2.75797409e+06 8.27392227e+04 
28 195.46 4.26806624e+06 1.28041987e+05 
29 196.26 6.88650871e+06 2.06595261e+05 
30 197.05 9.06943273e+06 2.72082982e+05 
31 197.85 1.41066743e+07 4.23200229e+05 
32 198.65 2.07716483e+07 6.23149448e+05 
33 199.45 3.07733030e+07 9.23199091e+05 
34 200.25 3.70582271e+07 1.11174681e+06 
35 201.05 5.62043551e+07 1.68613065e+06 
36 201.85 1.13841388e+08 3.41524165e+06 
37 202.64 2.04811045e+08 6.14433136e+06 
38 203.44 1.79984740e+08 5.39954219e+06 
39 204.24 1.21764900e+08 3.65294699e+06 
40 205.04 8.54018473e+07 2.56205542e+06 
41 205.84 5.89890663e+07 1.76967199e+06 
42 206.64 4.03079346e+07 1.20923804e+06 
43 207.44 2.69621695e+07 8.08865084e+05 
44 208.24 1.83489752e+07 5.50469257e+05 
45 209.04 1.21985018e+07 3.65955054e+05 
46 209.84 8.04176366e+06 2.41252910e+05 
47 210.64 5.66958221e+06 1.70087466e+05 
48 211.44 3.84210989e+06 1.15263297e+05 
49 212.24 2.61309581e+06 7.83928744e+04 
50 213.05 1.73459280e+06 5.20377840e+04 
51 213.85 1.17343626e+06 3.52030877e+04 
52 214.65 8.06488473e+05 2.41946542e+04 
53 215.45 5.53774940e+05 1.66132482e+04 
54 216.25 3.81667186e+05 1.14500156e+04 
55 217.05 2.51840823e+05 7.55522468e+03 
56 217.85 1.69725987e+05 5.09177962e+03 
57 218.65 1.17305264e+05 3.51915792e+03 
58 219.46 7.79358796e+04 2.33807639e+03 
59 220.26 5.28284876e+04 1.58485463e+03 
60 221.06 3.69738774e+04 1.10921632e+03 
61 221.86 2.44833828e+04 7.34501485e+02 
62 222.66 1.66149113e+04 4.98447338e+02 
63 223.47 1.12648775e+04 3.37946326e+02 
64 224.27 7.42900980e+03 2.22870294e+02 
65 225.07 5.16703069e+03 1.55010921e+02 
66 225.87 3.44566771e+03 1.03370031e+02 
67 226.68 2.42736255e+03 7.28208765e+01 
68 227.48 1.56604303e+03 4.69812908e+01 
69 228.28 1.14093553e+03 3.42280658e+01 
70 229.09 8.34517446e+02 2.50355234e+01 
71 229.89 7.07518309e+02 2.12255493e+01 
72 230.69 7.15068090e+02 2.14520427e+01 
73 231.49 8.59101217e+02 2.57730365e+01 
74 232.30 1.17390977e+03 3.52172930e+01 
75 233.10 1.72170866e+03 5.16512597e+01 
76 233.91 2.90406734e+03 8.71220203e+01 
77 234.71 4.48466337e+03 1.34539901e+02 
78 235.51 7.33159245e+03 2.19947774e+02 
79 236.32 1.17892565e+04 3.53677695e+02 
80 237.12 1.88957025e+04 5.66871076e+02 
81 237.92 3.04649925e+04 9.13949776e+02 
82 238.73 5.03482497e+04 1.51044749e+03 
83 239.53 7.85222944e+04 2.35566883e+03 
84 240.34 1.26471175e+05 3.79413526e+03 
85 241.14 2.05383129e+05 6.16149388e+03 
86 241.94 3.13487810e+05 9.40463431e+03 
87 242.75 4.86552765e+05 1.45965829e+04 
88 243.55 7.50283923e+05 2.25085177e+04 
89 244.36 1.10153559e+06 3.30460677e+04 
90 245.16 1.59067551e+06 4.77202653e+04 
91 245.97 2.43378886e+06 7.30136657e+04 
92 246.77 3.85193394e+06 1.15558018e+05 
93 247.58 4.52369981e+06 1.35710994e+05 
94 248.38 5.76836724e+06 1.73051017e+05 
95 249.19 7.83038816e+06 2.34911645e+05 
96 249.99 9.38455209e+06 2.81536563e+05 
97 250.80 1.12938297e+07 3.38814892e+05 
98 251.60 1.34214400e+07 4.02643201e+05 
99 252.41 1.50023410e+07 4.50070231e+05 
100 253.21 1.63078609e+07 4.89235826e+05 
101 254.02 1.82431495e+07 5.47294485e+05 
102 254.83 1.92344802e+07 5.77034406e+05 
103 255.63 1.88872838e+07 5.66618514e+05 
104 256.44 1.71197897e+07 5.13593691e+05 
105 257.24 1.57312369e+07 4.71937108e+05 
106 258.05 1.40549412e+07 4.21648235e+05 
107 258.85 1.19150134e+07 3.57450401e+05 
108 259.66 9.89324320e+06 2.96797296e+05 
109 260.46 7.89527985e+06 2.36858396e+05 
110 261.27 5.91068737e+06 1.77320621e+05 
111 262.08 4.55841713e+06 1.36752514e+05 
112 262.88 3.03895029e+06 9.11685088e+04 
113 263.69 2.26474304e+06 6.79422911e+04 
114 264.50 1.57975699e+06 4.73927098e+04 
115 265.30 1.07392198e+06 3.22176595e+04 
116 266.11 7.11152793e+05 2.13345838e+04 
117 266.91 4.48100525e+05 1.34430157e+04 
118 267.72 2.78620270e+05 8.35860810e+03 
119 268.53 1.69127860e+05 5.07383580e+03 
120 269.33 1.05251303e+05 3.15753909e+03 
121 270.14 6.65416031e+04 1.99624809e+03 
122 270.95 4.03898427e+04 1.21169528e+03 
123 271.75 2.52168510e+04 7.56505531e+02 
124 272.56 1.50690928e+04 4.52072785e+02 
125 273.37 8.78345764e+03 2.63503729e+02 
126 274.17 5.23922316e+03 1.57176695e+02 
127 274.98 3.16919086e+03 9.50757258e+01 
128 275.79 1.93775326e+03 5.81325978e+01 
129 276.59 1.26585530e+03 3.79756591e+01 
130 277.40 7.69440996e+02 2.30832299e+01 
131 278.21 4.97438763e+02 1.49231629e+01 
132 279.01 3.16475220e+02 9.49425659e+00 
133 279.82 2.02119648e+02 6.06358944e+00 
134 280.63 1.33123625e+02 3.99370874e+00 
135 281.44 8.56146907e+01 2.56844072e+00 
136 282.24 5.85612581e+01 1.75683774e+00 
137 283.05 4.13089935e+01 1.23926981e+00 
138 283.86 2.95869761e+01 8.87609284e-01 
139 284.66 2.04516032e+01 6.13548095e-01 
140 285.47 1.47656721e+01 4.42970164e-01 
141 286.28 1.11972712e+01 3.35918136e-01 
142 287.09 8.36108874e+00 2.50832662e-01 
143 287.89 6.51716855e+00 1.95515057e-01 
144 288.70 5.12893450e+00 1.53868035e-01 
145 289.51 4.31545260e+00 1.29463578e-01 
146 290.32 3.50688903e+00 1.05206671e-01 
147 291.12 2.86282692e+00 8.58848075e-02 
148 291.93 2.42354830e+00 7.27064490e-02 
149 292.74 2.06799903e+00 6.20399709e-02 
150 293.55 1.75843350e+00 5.27530051e-02 
151 294.35 1.59086794e+00 4.77260381e-02 
152 295.16 1.38559344e+00 4.15678031e-02 
153 295.97 1.28201340e+00 3.84604021e-02 
154 296.78 1.08465886e+00 3.25397659e-02 
155 297.58 9.86407258e-01 2.95922177e-02 
156 298.39 9.39151899e-01 2.81745570e-02 
157 299.20 8.64710091e-01 2.59413027e-02 
158 300.01 7.94559815e-01 2.38367944e-02 
159 300.81 7.69357427e-01 2.30807228e-02 
160 301.62 7.22878021e-01 2.16863406e-02 
161 302.43 7.12042680e-01 2.13612804e-02 
162 303.24 6.58678162e-01 1.97603449e-02 
163 304.05 6.41391174e-01 1.92417352e-02 
164 304.85 6.20567665e-01 1.86170300e-02 
165 305.66 6.26393081e-01 1.87917924e-02 
166 306.47 5.95011349e-01 1.78503405e-02 
167 307.28 5.92364947e-01 1.77709484e-02 
168 308.08 5.82694847e-01 1.74808454e-02 
169 308.89 5.64491221e-01 1.69347366e-02 
170 309.70 5.69488963e-01 1.70846689e-02 
171 310.51 5.63663748e-01 1.69099124e-02 
172 311.32 5.64959971e-01 1.69487991e-02 
173 312.12 5.73879270e-01 1.72163781e-02 
174 312.93 5.68614936e-01 1.70584481e-02 
175 313.74 5.74299075e-01 1.72289723e-02 
176 314.55 5.67533576e-01 1.70260073e-02 
177 315.36 5.76114502e-01 1.72834351e-02 
178 316.16 5.85283495e-01 1.75585048e-02 
179 316.97 6.12358665e-01 1.83707600e-02 
180 317.78 6.06400755e-01 1.81920226e-02 
181 318.59 6.28538210e-01 1.88561463e-02 
182 319.39 6.37795915e-01 1.91338774e-02 
183 320.20 6.45129891e-01 1.93538967e-02 
184 321.01 6.87223210e-01 2.06166963e-02 
185 321.82 6.99941184e-01 2.09982355e-02 
186 322.63 7.17677877e-01 2.15303363e-02 
187 323.43 7.23015644e-01 2.16904693e-02 
188 324.24 7.49867546e-01 2.24960264e-02 
189 325.05 7.99267284e-01 2.39780185e-02 
190 325.86 8.24670041e-01 2.47401012e-02 
191 326.67 8.34697569e-01 2.50409271e-02 
192 327.48 8.79933410e-01 2.63980023e-02 
193 328.28 9.08266364e-01 2.72479909e-02 
194 329.09 9.47564197e-01 2.84269259e-02 
195 329.90 9.76460840e-01 2.92938252e-02 
196 330.71 1.08587522e+00 3.25762567e-02 
197 331.51 1.20879432e+00 3.62638295e-02 
198 332.32 1.41784162e+00 4.25352487e-02 
199 333.13 1.80204897e+00 5.40614690e-02 
200 333.94 2.48157442e+00 7.44472325e-02 
201 334.75 3.58214293e+00 1.07464288e-01 
202 335.56 5.07549736e+00 1.52264921e-01 
203 336.36 7.08516329e+00 2.12554899e-01 
204 337.17 1.01230976e+01 3.03692929e-01 
205 337.98 1.43033202e+01 4.29099607e-01 
206 338.79 1.91065536e+01 5.73196607e-01 
207 339.59 2.43508506e+01 7.30525517e-01 
208 340.40 2.88916397e+01 8.66749191e-01 
209 341.21 3.25590097e+01 9.76770292e-01 
210 342.02 3.68939869e+01 1.10681961e+00 
211 342.83 4.06380036e+01 1.21914011e+00 
212 343.64 4.13298643e+01 1.23989593e+00 
213 344.44 4.25495562e+01 1.27648669e+00 
214 345.25 4.70454461e+01 1.41136338e+00 
215 346.06 5.12579888e+01 1.53773967e+00 
216 346.87 5.39090458e+01 1.61727138e+00 
217 347.67 5.57551386e+01 1.67265416e+00 
218 348.48 5.74290066e+01 1.72287020e+00 
219 349.29 6.06930748e+01 1.82079224e+00 
220 350.10 6.64279417e+01 1.99283825e+00 
221 350.91 7.03129022e+01 2.10938707e+00 
222 351.71 7.04027094e+01 2.11208128e+00 
223 352.52 7.16255900e+01 2.14876770e+00 
224 353.33 7.78910503e+01 2.33673151e+00 
225 354.14 8.56505468e+01 2.56951640e+00 
226 354.94 8.90284770e+01 2.67085431e+00 
227 355.75 8.73317479e+01 2.61995244e+00 
228 356.56 8.21057152e+01 2.46317146e+00 
229 357.37 7.69972689e+01 2.30991807e+00 
230 358.18 7.59462450e+01 2.27838735e+00 
231 358.98 8.51382267e+01 2.55414680e+00 
232 359.79 9.79953689e+01 2.93986107e+00 
233 360.60 9.96472293e+01 2.98941688e+00 
234 361.41 9.81332998e+01 2.94399899e+00 
235 362.21 1.03282231e+02 3.09846692e+00 
236 363.02 1.09274417e+02 3.27823251e+00 
237 363.83 1.12859197e+02 3.38577590e+00 
238 364.64 1.18347657e+02 3.55042970e+00 
239 365.44 1.28712478e+02 3.86137435e+00 
240 366.25 1.37732972e+02 4.13198915e+00 
241 367.06 1.38906304e+02 4.16718913e+00 
242 367.87 1.36766927e+02 4.10300781e+00 
243 368.67 1.38712900e+02 4.16138700e+00 
244 369.48 1.44436073e+02 4.33308218e+00 
245 370.29 1.45780007e+02 4.37340021e+00 
246 371.10 1.44029949e+02 4.32089847e+00 
247 371.90 1.40177046e+02 4.20531139e+00 
248 372.71 1.32342731e+02 3.97028193e+00 
249 373.52 1.25018436e+02 3.75055308e+00 
250 374.33 1.24563123e+02 3.73689370e+00 
251 375.13 1.33316832e+02 3.99950497e+00 
252 375.94 1.45105984e+02 4.35317951e+00 
253 376.75 1.57909547e+02 4.73728640e+00 
254 377.55 1.72324422e+02 5.16973266e+00 
255 378.36 1.76237344e+02 5.28712031e+00 
256 379.17 1.67614915e+02 5.02844744e+00 
257 379.98 1.63781848e+02 4.91345545e+00 
258 380.78 1.63161408e+02 4.89484223e+00 
259 381.59 1.48918383e+02 4.46755149e+00 
260 382.40 1.27181038e+02 3.81543113e+00 
261 383.21 1.17233422e+02 3.51700266e+00 
262 384.01 1.26935762e+02 3.80807287e+00 
263 384.82 1.43305905e+02 4.29917715e+00 
264 385.63 1.50536381e+02 4.51609142e+00 
265 386.43 1.51910251e+02 4.55730752e+00 
266 387.24 1.53069669e+02 4.59209006e+00 
267 388.05 1.55799453e+02 4.67398360e+00 
268 388.85 1.65433318e+02 4.96299954e+00 
269 389.66 1.80843828e+02 5.42531485e+00 
270 390.47 1.93155468e+02 5.79466404e+00 
271 391.27 1.93895271e+02 5.81685813e+00 
272 392.08 1.73134531e+02 5.19403594e+00 
273 392.89 1.41512181e+02 4.24536543e+00 
274 393.69 1.34403002e+02 4.03209006e+00 
275 394.50 1.59429863e+02 4.78289590e+00 
276 395.31 1.77828306e+02 5.33484917e+00 
277 396.11 1.66822533e+02 5.00467599e+00 
278 396.92 1.59105763e+02 4.77317288e+00 
279 397.73 1.86922280e+02 5.60766840e+00 
280 398.53 2.29617209e+02 6.88851627e+00 
281 399.34 2.57382398e+02 7.72147195e+00 
282 400.15 2.71095068e+02 8.13285203e+00 
283 400.95 2.80433070e+02 8.41299211e+00 
284 401.76 2.87712742e+02 8.63138227e+00 
285 402.57 2.89942109e+02 8.69826328e+00 
286 403.37 2.88204415e+02 8.64613246e+00 
287 404.18 2.86744672e+02 8.60234017e+00 
288 404.98 2.85323873e+02 8.55971619e+00 
289 405.79 2.84024900e+02 8.52074701e+00 
290 406.60 2.85186310e+02 8.55558931e+00 
291 407.40 2.92467632e+02 8.77402895e+00 
292 408.21 3.03311868e+02 9.09935604e+00 
293 409.02 3.07510620e+02 9.22531859e+00 
294 409.82 3.04958160e+02 9.14874479e+00 
295 410.63 3.08969003e+02 9.26907010e+00 
296 411.44 3.21793485e+02 9.65380455e+00 
297 412.24 3.30923830e+02 9.92771490e+00 
298 413.05 3.32477264e+02 9.97431793e+00 
299 413.85 3.32476849e+02 9.97430547e+00 
300 414.66 3.33183936e+02 9.99551807e+00 
301 415.46 3.34466034e+02 1.00339810e+01 
302 416.27 3.34376489e+02 1.00312947e+01 
303 417.08 3.30333822e+02 9.91001466e+00 
304 417.88 3.24770431e+02 9.74311293e+00 
305 418.69 3.21908402e+02 9.65725206e+00 
306 419.49 3.22385132e+02 9.67155397e+00 
307 420.30 3.25835620e+02 9.77506859e+00 
308 421.11 3.28473456e+02 9.85420369e+00 
309 421.91 3.25658229e+02 9.76974686e+00 
310 422.72 3.20125986e+02 9.60377959e+00 
311 423.52 3.18917157e+02 9.56751472e+00 
312 424.33 3.21419743e+02 9.64259228e+00 
313 425.13 3.22706524e+02 9.68119571e+00 
314 425.94 3.21736563e+02 9.65209689e+00 
315 426.74 3.20236523e+02 9.60709568e+00 
316 427.55 3.18585657e+02 9.55756971e+00 
317 428.35 3.13327055e+02 9.39981165e+00 
318 429.16 3.00530992e+02 9.01592977e+00 
319 429.96 2.88000682e+02 8.64002046e+00 
320 430.77 2.95272518e+02 8.85817554e+00 
321 431.58 3.24167601e+02 9.72502803e+00 
322 432.38 3.54759547e+02 1.06427864e+01 
323 433.19 3.70162373e+02 1.11048712e+01 
324 433.99 3.78608537e+02 1.13582561e+01 
325 434.80 3.93383237e+02 1.18014971e+01 
326 435.60 4.13790264e+02 1.24137079e+01 
327 436.41 4.27834577e+02 1.28350373e+01 
328 437.21 4.28220955e+02 1.28466286e+01 
329 438.02 4.23235077e+02 1.26970523e+01 
330 438.82 4.25231565e+02 1.27569469e+01 
331 439.63 4.37071924e+02 1.31121577e+01 
332 440.43 4.55363779e+02 1.36609134e+01 
333 441.24 4.74240219e+02 1.42272066e+01 
334 442.04 4.91076945e+02 1.47323083e+01 
335 442.84 5.02940160e+02 1.50882048e+01 
336 443.65 5.09841640e+02 1.52952492e+01 
337 444.45 5.12088494e+02 1.53626548e+01 
338 445.26 5.11986998e+02 1.53596099e+01 
339 446.06 5.16419074e+02 1.54925722e+01 
340 446.87 5.27863408e+02 1.58359022e+01 
341 447.67 5.42743788e+02 1.62823136e+01 
342 448.48 5.54788300e+02 1.66436490e+01 
343 449.28 5.65753660e+02 1.69726098e+01 
344 450.09 5.77027099e+02 1.73108130e+01 
345 450.89 5.83202319e+02 1.74960696e+01 
346 451.69 5.78381547e+02 1.73514464e+01 
347 452.50 5.67997752e+02 1.70399326e+01 
348 453.30 5.62711871e+02 1.68813561e+01 
349 454.11 5.65370554e+02 1.69611166e+01 
350 454.91 5.74159709e+02 1.72247913e+01 
351 455.72 5.83769173e+02 1.75130752e+01 
352 456.52 5.91431813e+02 1.77429544e+01 
353 457.32 5.94689781e+02 1.78406934e+01 
354 458.13 5.93540496e+02 1.78062149e+01 
355 458.93 5.92552245e+02 1.77765674e+01 
356 459.74 5.96014252e+02 1.78804276e+01 
357 460.54 6.03516968e+02 1.81055091e+01 
358 461.34 6.12002349e+02 1.83600705e+01 
359 462.15 6.17648572e+02 1.85294572e+01 
360 462.95 6.17913882e+02 1.85374165e+01 
361 463.76 6.14333548e+02 1.84300064e+01 
362 464.56 6.10617461e+02 1.83185238e+01 
363 465.36 6.07699931e+02 1.82309979e+01 
364 466.17 6.06259529e+02 1.81877859e+01 
365 466.97 6.07259813e+02 1.82177944e+01 
366 467.77 6.10104234e+02 1.83031270e+01 
367 468.58 6.13364248e+02 1.84009274e+01 
368 469.38 6.14366002e+02 1.84309801e+01 
369 470.18 6.15570389e+02 1.84671117e+01 
370 470.99 6.21486252e+02 1.86445875e+01 
371 471.79 6.30059520e+02 1.89017856e+01 
372 472.59 6.38205764e+02 1.91461729e+01 
373 473.40 6.44317257e+02 1.93295177e+01 
374 474.20 6.47990432e+02 1.94397130e+01 
375 475.00 6.50432744e+02 1.95129823e+01 
376 475.81 6.52780564e+02 1.95834169e+01 
377 476.61 6.56482543e+02 1.96944763e+01 
378 477.41 6.62364629e+02 1.98709389e+01 
379 478.21 6.68459784e+02 2.00537935e+01 
380 479.02 6.72659643e+02 2.01797893e+01 
381 479.82 6.74864435e+02 2.02459330e+01 
382 480.62 6.77551581e+02 2.03265474e+01 
383 481.43 6.78680293e+02 2.03604088e+01 
384 482.23 6.77206510e+02 2.03161953e+01 
385 483.03 6.72096422e+02 2.01628927e+01 
386 483.84 6.60501893e+02 1.98150568e+01 
387 484.64 6.38952500e+02 1.91685750e+01 
388 485.44 6.14272250e+02 1.84281675e+01 
389 486.24 6.00504739e+02 1.80151422e+01 
390 487.05 6.02949741e+02 1.80884922e+01 
391 487.85 6.19270401e+02 1.85781120e+01 
392 488.65 6.39691086e+02 1.91907326e+01 
393 489.45 6.53573444e+02 1.96072033e+01 
394 490.26 6.58007155e+02 1.97402146e+01 
395 491.06 6.56226462e+02 1.96867939e+01 
396 491.86 6.52312037e+02 1.95693611e+01 
397 492.66 6.51933736e+02 1.95580121e+01 
398 493.46 6.57838050e+02 1.97351415e+01 
399 494.27 6.65086382e+02 1.99525914e+01 
400 495.07 6.69350739e+02 2.00805222e+01 
401 495.87 6.71192450e+02 2.01357735e+01 
402 496.67 6.68372005e+02 2.00511601e+01 
403 497.48 6.63229759e+02 1.98968928e+01 
404 498.28 6.57963116e+02 1.97388935e+01 
405 499.08 6.51111518e+02 1.95333455e+01 
406 499.88 6.43662370e+02 1.93098711e+01 
407 500.68 6.37758814e+02 1.91327644e+01 
408 501.48 6.35048917e+02 1.90514675e+01 
409 502.29 6.36792653e+02 1.91037796e+01 
410 503.09 6.41130266e+02 1.92339080e+01 
411 503.89 6.47280560e+02 1.94184168e+01 
412 504.69 6.54140211e+02 1.96242063e+01 
413 505.49 6.59035946e+02 1.97710784e+01 
414 506.29 6.59976461e+02 1.97992938e+01 
415 507.09 6.57252155e+02 1.97175647e+01 
416 507.90 6.53692367e+02 1.96107710e+01 
417 508.70 6.51794743e+02 1.95538423e+01 
418 509.50 6.52157953e+02 1.95647386e+01 
419 510.30 6.53512140e+02 1.96053642e+01 
420 511.10 6.52407038e+02 1.95722111e+01 
421 511.90 6.48286484e+02 1.94485945e+01 
422 512.70 6.41804630e+02 1.92541389e+01 
423 513.51 6.34512402e+02 1.90353721e+01 
424 514.31 6.28022378e+02 1.88406713e+01 
425 515.11 6.17983112e+02 1.85394934e+01 
426 515.91 6.02344889e+02 1.80703467e+01 
427 516.71 5.87165066e+02 1.76149520e+01 
428 517.51 5.78203328e+02 1.73460998e+01 
429 518.31 5.81275140e+02 1.74382542e+01 
430 519.11 5.94607318e+02 1.78382195e+01 
431 519.91 6.08790964e+02 1.82637289e+01 
432 520.71 6.19397528e+02 1.85819258e+01 
433 521.51 6.24111475e+02 1.87233443e+01 
434 522.32 6.26932478e+02 1.88079743e+01 
435 523.12 6.31429673e+02 1.89428902e+01 
436 523.92 6.35456353e+02 1.90636906e+01 
437 524.72 6.34763223e+02 1.90428967e+01 
438 525.52 6.26558534e+02 1.87967560e+01 
439 526.32 6.16642407e+02 1.84992722e+01 
440 527.12 6.14892694e+02 1.84467808e+01 
441 527.92 6.22340457e+02 1.86702137e+01 
442 528.72 6.35394666e+02 1.90618400e+01 
443 529.52 6.47412226e+02 1.94223668e+01 
444 530.32 6.52494465e+02 1.95748339e+01 
445 531.12 6.49681794e+02 1.94904538e+01 
446 531.92 6.43690252e+02 1.93107075e+01 
447 532.72 6.38669569e+02 1.91600871e+01 
448 533.52 6.38104041e+02 1.91431212e+01 
449 534.32 6.42728430e+02 1.92818529e+01 
450 535.12 6.47702388e+02 1.94310716e+01 
451 535.92 6.48896252e+02 1.94668876e+01 
452 536.72 6.47775840e+02 1.94332752e+01 
453 537.52 6.44954553e+02 1.93486366e+01 
454 538.32 6.40366722e+02 1.92110017e+01 
455 539.12 6.34974182e+02 1.90492255e+01 
456 539.92 6.30143022e+02 1.89042907e+01 
457 540.72 6.28107021e+02 1.88432106e+01 
458 541.52 6.29361643e+02 1.88808493e+01 
459 542.32 6.33781936e+02 1.90134581e+01 
460 543.12 6.38399504e+02 1.91519851e+01 
461 543.92 6.41610982e+02 1.92483295e+01 
462 544.72 6.43481342e+02 1.93044403e+01 
463 545.52 6.43165425e+02 1.92949628e+01 
464 546.31 6.40127948e+02 1.92038384e+01 
465 547.12 6.36593968e+02 1.90978190e+01 
466 547.91 6.34452865e+02 1.90335860e+01 
467 548.71 6.33758972e+02 1.90127692e+01 
468 549.51 6.34221759e+02 1.90266528e+01 
469 550.31 6.34408602e+02 1.90322580e+01 
470 551.11 6.34116270e+02 1.90234881e+01 
471 551.91 6.33651964e+02 1.90095589e+01 
472 552.71 6.33420759e+02 1.90026228e+01 
