% C0 (TOA Count Rate, /ms) for 4STAR NIR spectrometer (512 channels) derived from 4STAR_20160927starsun.mat and recorded on 2017-05-23 18:50:32.
% Using the MLO from September 2016 high altitude AOD for stratospheric AOD component, calculating the c0 from the AOD at low airmass. 
Pix Wavelength C0 C0err
511 949.79 5.45853138e+00 1.11124692e-02 
510 949.79 5.61243582e+00 1.05789322e-02 
509 951.68 6.00200081e+00 1.07969940e-02 
508 953.57 6.04974461e+00 1.07419901e-02 
507 955.46 6.51354265e+00 1.17646372e-02 
506 957.34 6.59877014e+00 1.03488239e-02 
505 959.22 7.06121254e+00 1.10727791e-02 
504 961.10 7.12494326e+00 1.00530125e-02 
503 962.98 7.54103136e+00 1.08803790e-02 
502 964.85 7.51245928e+00 9.62315314e-03 
501 966.72 8.01734161e+00 1.10515701e-02 
500 968.59 8.01888084e+00 1.07833846e-02 
499 970.45 8.40963650e+00 1.16878282e-02 
498 972.32 8.37537003e+00 1.06853405e-02 
497 974.18 8.71417713e+00 1.07260160e-02 
496 976.04 8.63714027e+00 1.09200580e-02 
495 977.89 8.96869659e+00 1.18570561e-02 
494 979.74 8.85494709e+00 1.09660476e-02 
493 981.59 9.13927937e+00 1.18202679e-02 
492 983.44 9.01038933e+00 1.08895376e-02 
491 985.29 9.26671314e+00 1.16066299e-02 
490 987.13 9.04928970e+00 1.10898977e-02 
489 988.97 9.28934097e+00 1.25692459e-02 
488 990.81 9.10803509e+00 1.16279945e-02 
487 992.65 9.28761768e+00 1.23478482e-02 
486 994.48 9.09481907e+00 1.19437939e-02 
485 996.31 9.23782730e+00 1.16652846e-02 
484 998.14 9.00047588e+00 1.14403553e-02 
483 999.97 9.13820744e+00 1.21930530e-02 
482 1001.79 8.85135937e+00 1.00172488e-02 
481 1003.62 8.92616081e+00 1.24651678e-02 
480 1005.44 8.70637131e+00 1.24892471e-02 
479 1007.25 8.94941711e+00 1.26942042e-02 
478 1009.07 8.72375584e+00 1.17829517e-02 
477 1010.88 8.89900398e+00 1.29074287e-02 
476 1012.69 8.62587929e+00 1.12192137e-02 
475 1014.50 8.76568508e+00 1.19787613e-02 
474 1016.31 8.55623341e+00 1.18942969e-02 
473 1018.11 8.68376064e+00 1.25386249e-02 
472 1019.91 8.43776417e+00 1.25491777e-02 
471 1021.71 8.58959007e+00 1.31155942e-02 
470 1023.51 8.35523891e+00 1.21910851e-02 
469 1025.30 8.53075695e+00 1.30210724e-02 
468 1027.09 8.41285992e+00 1.18902782e-02 
467 1028.88 8.55764294e+00 1.33240679e-02 
466 1030.67 8.40999603e+00 1.18091414e-02 
465 1032.46 8.58373642e+00 1.25879804e-02 
464 1034.24 8.42624855e+00 1.08463839e-02 
463 1036.02 8.62516594e+00 1.14170369e-02 
462 1037.80 8.48452568e+00 1.03749689e-02 
461 1039.58 8.69112968e+00 1.12742661e-02 
460 1041.35 8.54087830e+00 1.10291997e-02 
459 1043.12 8.69049454e+00 1.19694844e-02 
458 1044.89 8.59857368e+00 1.08921407e-02 
457 1046.66 8.82399178e+00 1.11678075e-02 
456 1048.43 8.76854706e+00 9.54800379e-03 
455 1050.19 9.00209904e+00 1.16462614e-02 
454 1051.95 8.86481953e+00 1.06063047e-02 
453 1053.71 9.12640190e+00 1.26563106e-02 
452 1055.47 8.95248318e+00 1.12966457e-02 
451 1057.23 9.09604263e+00 1.23866880e-02 
450 1058.98 8.93433571e+00 1.11888722e-02 
449 1060.73 9.11032486e+00 1.21665252e-02 
448 1062.48 8.90580750e+00 1.12602971e-02 
447 1064.23 9.03498077e+00 1.22892493e-02 
446 1065.97 8.75026035e+00 1.19987680e-02 
445 1067.71 8.79971123e+00 1.24413846e-02 
444 1069.46 8.59880829e+00 1.19015928e-02 
443 1071.19 8.72209263e+00 1.25317648e-02 
442 1072.93 8.56370258e+00 1.11384112e-02 
441 1074.67 8.65870571e+00 1.20787937e-02 
440 1076.40 8.46261311e+00 1.20015163e-02 
439 1078.13 8.49117661e+00 1.29235322e-02 
438 1079.86 8.24792862e+00 1.27317337e-02 
437 1081.58 8.33627510e+00 1.22126276e-02 
436 1083.31 8.21088409e+00 1.06504299e-02 
435 1085.03 8.40599632e+00 1.16472887e-02 
434 1086.75 8.34962273e+00 1.06597571e-02 
433 1088.47 8.52229500e+00 1.25790117e-02 
432 1090.19 8.42258358e+00 1.28300656e-02 
431 1091.90 8.53591537e+00 1.41304797e-02 
430 1093.61 8.40967655e+00 1.23941563e-02 
429 1095.33 8.62430859e+00 1.31372623e-02 
428 1097.03 8.66437531e+00 1.29068838e-02 
427 1098.74 8.92555618e+00 1.30820312e-02 
426 1100.45 8.96048832e+00 1.29476348e-02 
425 1102.15 9.26825523e+00 1.24701681e-02 
424 1103.85 9.29209518e+00 1.10904342e-02 
423 1105.55 9.57948494e+00 1.23522952e-02 
422 1107.25 9.53536510e+00 1.03932405e-02 
421 1108.94 9.74205494e+00 1.16944797e-02 
420 1110.64 9.61472702e+00 1.05032297e-02 
419 1112.33 9.73685360e+00 1.18106650e-02 
418 1114.02 9.50040627e+00 1.21007385e-02 
417 1115.70 9.56081963e+00 1.39415618e-02 
416 1117.39 9.32214451e+00 1.35241449e-02 
415 1119.07 9.33298779e+00 1.61152035e-02 
414 1120.76 9.20561600e+00 1.43573117e-02 
413 1122.44 9.29801083e+00 1.70200672e-02 
412 1124.12 9.20883751e+00 1.72890462e-02 
411 1125.79 9.37582016e+00 1.87202301e-02 
410 1127.47 9.44149303e+00 1.50779178e-02 
409 1129.14 9.67977715e+00 1.61911137e-02 
408 1130.81 9.40757179e+00 1.60711911e-02 
407 1132.48 9.39077663e+00 1.79616883e-02 
406 1134.15 9.22827530e+00 1.69969779e-02 
405 1135.81 9.43058300e+00 1.52356485e-02 
404 1137.48 9.64381027e+00 1.15658687e-02 
403 1139.14 9.84132862e+00 1.19316066e-02 
402 1140.80 9.62399292e+00 1.21563384e-02 
401 1142.46 9.65750313e+00 1.42874634e-02 
400 1144.12 9.45306206e+00 1.35830417e-02 
399 1145.77 9.53112411e+00 1.49575621e-02 
398 1147.43 9.46985817e+00 1.22912703e-02 
397 1149.08 9.59774876e+00 1.34884045e-02 
396 1150.73 9.54736519e+00 1.17375236e-02 
395 1152.38 9.73912907e+00 1.32098701e-02 
394 1154.02 9.65952492e+00 1.10126790e-02 
393 1155.67 9.81017017e+00 1.25797261e-02 
392 1157.31 9.61928177e+00 1.06616970e-02 
391 1158.95 9.66768742e+00 1.21258209e-02 
390 1160.59 9.54005241e+00 1.14171458e-02 
389 1162.23 9.64693642e+00 1.20551400e-02 
388 1163.87 9.51702595e+00 1.02975909e-02 
387 1165.50 9.56126881e+00 1.17717516e-02 
386 1167.13 9.43873405e+00 1.20379394e-02 
385 1168.76 9.52774239e+00 1.35785369e-02 
384 1170.39 9.42648506e+00 1.15599539e-02 
383 1172.02 9.41186810e+00 1.18007064e-02 
382 1173.65 9.21621323e+00 1.02395583e-02 
381 1175.27 9.20332813e+00 1.11301718e-02 
380 1176.90 9.07399845e+00 9.39170457e-03 
379 1178.52 9.05643463e+00 1.14590963e-02 
378 1180.14 8.83390236e+00 1.10322516e-02 
377 1181.75 8.83037281e+00 1.16608972e-02 
376 1183.37 8.64699364e+00 1.09604606e-02 
375 1184.99 8.66488171e+00 1.10298889e-02 
374 1186.60 8.52011204e+00 1.02018751e-02 
373 1188.21 8.46341038e+00 1.15730017e-02 
372 1189.82 8.35235786e+00 1.17861331e-02 
371 1191.43 8.53996754e+00 1.45510156e-02 
370 1193.04 8.42662239e+00 1.49564054e-02 
369 1194.64 8.43462181e+00 1.39710726e-02 
368 1196.24 8.28057480e+00 1.19736278e-02 
367 1197.85 8.33711624e+00 1.22075509e-02 
366 1199.45 8.20986366e+00 1.12319272e-02 
365 1201.05 8.29180050e+00 1.20721851e-02 
364 1202.64 8.20318222e+00 1.10856369e-02 
363 1204.24 8.21989441e+00 1.19631980e-02 
362 1205.83 8.13201332e+00 1.06601184e-02 
361 1207.43 8.14691257e+00 1.17875542e-02 
360 1209.02 8.11794090e+00 1.19231921e-02 
359 1210.61 8.25341892e+00 1.27581311e-02 
358 1212.19 8.21942329e+00 1.17712412e-02 
357 1213.78 8.35888004e+00 1.19607532e-02 
356 1215.37 8.28593826e+00 1.04744956e-02 
355 1216.95 8.33697796e+00 1.13120480e-02 
354 1218.53 8.27065277e+00 9.80823487e-03 
353 1220.11 8.32703018e+00 1.11194002e-02 
352 1221.69 8.31463337e+00 1.04343956e-02 
351 1223.27 8.35834885e+00 1.24395788e-02 
350 1224.84 8.32262039e+00 1.22302268e-02 
349 1226.42 8.36598778e+00 1.22550316e-02 
348 1227.99 8.33247375e+00 1.05983885e-02 
347 1229.56 8.45204067e+00 1.08802449e-02 
346 1231.13 8.37191868e+00 1.05026299e-02 
345 1232.70 8.45281410e+00 1.26365675e-02 
344 1234.27 8.41467476e+00 1.19765336e-02 
343 1235.84 8.41824627e+00 1.30163040e-02 
342 1237.40 8.33520031e+00 1.09275263e-02 
341 1238.96 8.32027435e+00 1.19856670e-02 
340 1240.52 8.18156338e+00 1.16286585e-02 
339 1242.08 8.29879856e+00 1.23986965e-02 
338 1243.64 8.26742172e+00 1.18607581e-02 
337 1245.20 8.30504227e+00 1.28429029e-02 
336 1246.75 8.28102970e+00 1.25667248e-02 
335 1248.31 8.34575081e+00 1.28381653e-02 
334 1249.86 8.25529480e+00 1.11975959e-02 
333 1251.41 8.27567768e+00 1.13984616e-02 
332 1252.96 8.18634796e+00 1.01008145e-02 
331 1254.51 8.21896076e+00 1.15542738e-02 
330 1256.06 8.14179039e+00 1.03018070e-02 
329 1257.61 8.10593128e+00 1.19150663e-02 
328 1259.15 8.01019955e+00 1.08126644e-02 
327 1260.69 7.96960020e+00 1.14303753e-02 
326 1262.23 7.85281610e+00 1.05568012e-02 
325 1263.77 7.84472370e+00 1.17888479e-02 
324 1265.31 7.69567442e+00 1.05931452e-02 
323 1266.85 7.74133348e+00 1.21318493e-02 
322 1268.39 7.78180170e+00 9.63756908e-03 
321 1269.92 7.90753746e+00 1.10929767e-02 
320 1271.46 8.05410767e+00 1.00534894e-02 
319 1272.99 8.06892490e+00 9.95077845e-03 
318 1274.52 8.05521393e+00 1.02473805e-02 
317 1276.05 8.12170601e+00 1.13118589e-02 
316 1277.58 7.98081112e+00 1.08481459e-02 
315 1279.10 7.84360266e+00 1.17239077e-02 
314 1280.63 7.79925013e+00 1.02687487e-02 
313 1282.15 7.80128193e+00 1.13152908e-02 
312 1283.68 7.88586950e+00 1.04758060e-02 
311 1285.20 8.04304600e+00 1.04136448e-02 
310 1286.72 8.01325703e+00 1.05318185e-02 
309 1288.24 8.03799152e+00 1.18556852e-02 
308 1289.75 7.93175936e+00 1.04728350e-02 
307 1291.27 7.95599651e+00 1.10943476e-02 
306 1292.78 8.01637745e+00 1.07801864e-02 
305 1294.30 8.02951717e+00 1.24422489e-02 
304 1295.81 7.95700836e+00 1.14633041e-02 
303 1297.32 7.96111345e+00 1.21674147e-02 
302 1298.83 7.90390635e+00 1.11803254e-02 
301 1300.34 7.87524652e+00 1.17709721e-02 
300 1301.85 7.82933044e+00 1.05786892e-02 
299 1303.35 7.81112337e+00 1.16965519e-02 
298 1304.86 7.73289442e+00 1.17371473e-02 
297 1306.36 7.73487568e+00 1.25130592e-02 
296 1307.86 7.65971661e+00 1.10750813e-02 
295 1309.36 7.56991625e+00 1.05531085e-02 
294 1310.86 7.49350357e+00 1.04833329e-02 
293 1312.36 7.43389130e+00 1.09840510e-02 
292 1313.86 7.38755560e+00 1.08289439e-02 
291 1315.36 7.38845301e+00 1.12889484e-02 
290 1316.85 7.34906054e+00 1.02460003e-02 
289 1318.34 7.32593346e+00 1.10747786e-02 
288 1319.84 7.28384829e+00 1.03980852e-02 
287 1321.33 7.29222870e+00 1.13188028e-02 
286 1322.82 7.22961283e+00 1.06394161e-02 
285 1324.30 7.25627518e+00 1.00343227e-02 
284 1325.79 7.15351248e+00 1.10227689e-02 
283 1327.28 7.06655359e+00 1.23027060e-02 
282 1328.76 6.94343948e+00 1.10787014e-02 
281 1330.25 6.90506697e+00 1.05219139e-02 
280 1331.73 6.84766436e+00 1.05895968e-02 
279 1333.21 6.86103487e+00 1.19900787e-02 
278 1334.69 6.82338190e+00 1.03194602e-02 
277 1336.17 6.76569748e+00 1.15541890e-02 
276 1337.65 6.70781469e+00 8.68477952e-03 
275 1339.12 6.63524151e+00 1.27481073e-02 
274 1340.60 6.59515190e+00 1.20676495e-02 
273 1342.07 6.56822586e+00 1.31898187e-02 
272 1343.55 6.44642210e+00 1.16190268e-02 
271 1345.02 6.18078423e+00 1.33470939e-02 
270 1346.49 5.97865915e+00 1.39043946e-02 
269 1347.96 5.77871561e+00 1.70057062e-02 
268 1349.43 5.50974846e+00 1.63902212e-02 
267 1350.89 5.26719141e+00 1.80460047e-02 
266 1352.36 4.87113762e+00 1.83405764e-02 
265 1353.82 4.59654570e+00 2.06921007e-02 
264 1355.29 4.32810783e+00 2.16810871e-02 
263 1356.75 4.13587475e+00 2.41950266e-02 
262 1358.21 3.80660200e+00 2.41018590e-02 
261 1359.67 3.51903534e+00 2.74992976e-02 
260 1361.13 3.33950210e+00 2.80549470e-02 
259 1362.59 3.27835059e+00 2.79707499e-02 
258 1364.04 3.38367009e+00 2.73805037e-02 
257 1365.50 3.35862017e+00 2.83932891e-02 
256 1366.95 3.34909225e+00 2.61352658e-02 
255 1368.41 3.25621367e+00 2.79109739e-02 
254 1369.86 3.27234960e+00 2.48682126e-02 
253 1371.31 3.38269329e+00 2.39036512e-02 
252 1372.76 3.36543632e+00 1.89964902e-02 
251 1374.21 3.38811851e+00 1.94009840e-02 
250 1375.65 3.21405387e+00 1.74207669e-02 
249 1377.10 2.91738820e+00 1.75794810e-02 
248 1378.55 2.57914448e+00 1.69703290e-02 
247 1379.99 2.23671556e+00 1.83820743e-02 
246 1381.43 2.11311555e+00 1.73587129e-02 
245 1382.87 2.18042374e+00 1.82263292e-02 
244 1384.32 2.34865451e+00 1.69662591e-02 
243 1385.75 2.56327724e+00 1.69523824e-02 
242 1387.19 2.80733728e+00 1.43886013e-02 
241 1388.63 2.88020802e+00 1.59571730e-02 
240 1390.07 2.92520404e+00 1.50484266e-02 
239 1391.50 2.91733336e+00 1.65357199e-02 
238 1392.94 2.68555212e+00 1.70328245e-02 
237 1394.37 2.76652622e+00 1.91845316e-02 
236 1395.80 2.93819213e+00 1.56547558e-02 
235 1397.23 2.87376094e+00 1.75850168e-02 
234 1398.66 3.02956796e+00 1.79356690e-02 
233 1400.09 3.17430568e+00 1.87551416e-02 
232 1401.52 3.09357834e+00 1.83254033e-02 
231 1402.94 3.27453947e+00 1.79338139e-02 
230 1404.37 3.35566902e+00 1.69399250e-02 
229 1405.79 3.29384899e+00 1.85141843e-02 
228 1407.22 3.38645911e+00 1.66031700e-02 
227 1408.64 3.52534914e+00 1.71803217e-02 
226 1410.06 3.68045878e+00 1.49978418e-02 
225 1411.48 3.69078135e+00 1.66665297e-02 
224 1412.90 3.80845857e+00 1.49721652e-02 
223 1414.32 3.86857939e+00 1.49951922e-02 
222 1415.73 3.86680889e+00 1.46304611e-02 
221 1417.15 3.93977261e+00 1.65706612e-02 
220 1418.56 4.04210520e+00 1.40629672e-02 
219 1419.98 4.00716543e+00 1.62074715e-02 
218 1421.39 4.09093332e+00 1.34100448e-02 
217 1422.80 4.16006088e+00 1.36406077e-02 
216 1424.21 4.18714094e+00 1.27388956e-02 
215 1425.62 4.17911720e+00 1.39094396e-02 
214 1427.03 4.21577978e+00 1.16157671e-02 
213 1428.44 4.04036713e+00 1.34171015e-02 
212 1429.84 3.91824484e+00 1.19667193e-02 
211 1431.25 3.85694027e+00 1.27561353e-02 
210 1432.65 3.83146787e+00 1.19382096e-02 
209 1434.06 3.89531064e+00 1.36367818e-02 
208 1435.46 3.98805666e+00 1.13883801e-02 
207 1436.86 3.99231839e+00 1.31030465e-02 
206 1438.26 4.02535105e+00 1.23166125e-02 
205 1439.66 4.03474236e+00 1.32132564e-02 
204 1441.05 4.11722660e+00 1.11392746e-02 
203 1442.45 4.05820322e+00 1.32178664e-02 
202 1443.85 4.08741856e+00 1.19669763e-02 
201 1445.24 4.14206123e+00 1.35095436e-02 
200 1446.64 4.18704128e+00 1.25983199e-02 
199 1448.03 4.17182302e+00 1.33944126e-02 
198 1449.42 4.23697424e+00 1.26712415e-02 
197 1450.81 4.22666025e+00 1.36491489e-02 
196 1452.20 4.22110844e+00 1.23017114e-02 
195 1453.59 4.32640553e+00 1.23246079e-02 
194 1454.97 4.42768669e+00 1.09352237e-02 
193 1456.36 4.41866255e+00 1.16345510e-02 
192 1457.75 4.46836853e+00 9.59076732e-03 
191 1459.13 4.43987465e+00 1.10764597e-02 
190 1460.51 4.41852093e+00 1.09715983e-02 
189 1461.90 4.31698942e+00 1.13245938e-02 
188 1463.28 4.30271530e+00 1.12279523e-02 
187 1464.66 4.22785473e+00 1.15953609e-02 
186 1466.04 4.24313402e+00 1.09264031e-02 
185 1467.41 4.15785885e+00 1.19622359e-02 
184 1468.79 4.11637259e+00 1.09818680e-02 
183 1470.17 4.06486559e+00 1.19143706e-02 
182 1471.54 4.09993649e+00 1.06725805e-02 
181 1472.92 4.12611103e+00 1.15939910e-02 
180 1474.29 4.21178818e+00 1.08571080e-02 
179 1475.66 4.19914579e+00 1.13940490e-02 
178 1477.03 4.17358351e+00 1.09027810e-02 
177 1478.40 4.14737082e+00 1.17561147e-02 
176 1479.77 4.18200159e+00 1.11247627e-02 
175 1481.14 4.15474272e+00 1.19280955e-02 
174 1482.51 4.21676350e+00 1.10704768e-02 
173 1483.87 4.16212606e+00 1.13522336e-02 
172 1485.24 4.10758829e+00 1.10318782e-02 
171 1486.60 4.05454874e+00 1.15300175e-02 
170 1487.96 4.09629250e+00 1.05882669e-02 
169 1489.32 4.06578016e+00 1.08840717e-02 
168 1490.68 4.19392490e+00 1.06538245e-02 
167 1492.04 4.18223143e+00 1.14114201e-02 
166 1493.40 4.20718288e+00 1.08713526e-02 
165 1494.76 4.16380787e+00 1.12975622e-02 
164 1496.12 4.19358349e+00 1.16550587e-02 
163 1497.47 4.14670038e+00 1.14813866e-02 
162 1498.83 4.21691895e+00 1.01367170e-02 
161 1500.18 4.06062365e+00 9.14317183e-03 
160 1501.53 4.00140285e+00 1.06357345e-02 
159 1502.89 3.87540555e+00 1.01533709e-02 
158 1504.24 3.89794016e+00 9.72270686e-03 
157 1505.59 3.91325951e+00 1.09151918e-02 
156 1506.93 4.01987314e+00 9.78407916e-03 
155 1508.28 4.04768515e+00 1.03050238e-02 
154 1509.63 4.07603645e+00 1.02371220e-02 
153 1510.97 4.02467537e+00 1.10846534e-02 
152 1512.32 4.06976748e+00 1.09151155e-02 
151 1513.66 3.99590707e+00 8.96792114e-03 
150 1515.00 4.02472305e+00 9.66984220e-03 
149 1516.34 3.98970389e+00 1.08613661e-02 
148 1517.69 4.01271772e+00 1.09570390e-02 
147 1519.02 3.95982790e+00 1.10744247e-02 
146 1520.36 3.96809721e+00 1.08934641e-02 
145 1521.70 3.93352938e+00 1.11695100e-02 
144 1523.04 3.99283910e+00 1.06951185e-02 
143 1524.37 3.95066333e+00 1.05042243e-02 
142 1525.71 3.98895907e+00 1.01790139e-02 
141 1527.04 3.91211414e+00 1.11034047e-02 
140 1528.37 3.92883778e+00 1.04529429e-02 
139 1529.70 3.85885048e+00 1.08925784e-02 
138 1531.03 3.88786483e+00 1.01766624e-02 
137 1532.36 3.83092928e+00 1.12006832e-02 
136 1533.69 3.87061024e+00 9.50154848e-03 
135 1535.02 3.80048108e+00 1.07027702e-02 
134 1536.34 3.83051896e+00 9.77335498e-03 
133 1537.67 3.76564574e+00 1.10090459e-02 
132 1538.99 3.79574132e+00 1.02654202e-02 
131 1540.31 3.72665215e+00 1.07478965e-02 
130 1541.64 3.77819633e+00 1.09050730e-02 
129 1542.96 3.75000691e+00 1.15407184e-02 
128 1544.28 3.78882122e+00 1.03868116e-02 
127 1545.60 3.71266556e+00 1.17470585e-02 
126 1546.91 3.75337315e+00 8.42578150e-03 
125 1548.23 3.65633917e+00 1.08352164e-02 
124 1549.55 3.68256116e+00 1.01607414e-02 
123 1550.86 3.60622120e+00 1.08330501e-02 
122 1552.18 3.61849880e+00 1.05363121e-02 
121 1553.49 3.55952072e+00 1.01120714e-02 
120 1554.80 3.60975695e+00 1.05145406e-02 
119 1556.11 3.54208636e+00 1.04896165e-02 
118 1557.42 3.58191657e+00 1.04869921e-02 
117 1558.73 3.52226830e+00 1.10313641e-02 
116 1560.04 3.54138017e+00 1.01286713e-02 
115 1561.34 3.45952821e+00 1.10528627e-02 
114 1562.65 3.50278926e+00 1.03502022e-02 
113 1563.95 3.42821455e+00 1.10204257e-02 
112 1565.26 3.48495293e+00 1.04849702e-02 
111 1566.56 3.38000441e+00 1.07047297e-02 
110 1567.86 3.40028858e+00 9.78683773e-03 
109 1569.16 3.30141687e+00 1.07112769e-02 
108 1570.46 3.28961587e+00 9.93531011e-03 
107 1571.76 3.19219065e+00 1.06904795e-02 
106 1573.05 3.17702317e+00 9.86135285e-03 
105 1574.35 3.07874799e+00 1.12915626e-02 
104 1575.64 3.09464025e+00 9.81766917e-03 
103 1576.94 3.05234766e+00 1.10198837e-02 
102 1578.23 3.11082006e+00 9.54910927e-03 
101 1579.52 3.08426118e+00 1.06911948e-02 
100 1580.81 3.15133786e+00 1.08954338e-02 
99 1582.10 3.09423733e+00 1.05726914e-02 
98 1583.39 3.16084242e+00 1.03747100e-02 
97 1584.68 3.08584499e+00 1.10166734e-02 
96 1585.97 3.08039737e+00 9.55114141e-03 
95 1587.25 2.97396088e+00 1.03143901e-02 
94 1588.54 2.98710132e+00 8.50434788e-03 
93 1589.82 2.93077922e+00 1.11404005e-02 
92 1591.10 3.02957153e+00 1.00962259e-02 
91 1592.38 2.99068046e+00 1.11506386e-02 
90 1593.66 3.06222081e+00 9.71966237e-03 
89 1594.94 2.98250604e+00 1.04268817e-02 
88 1596.22 3.01312995e+00 1.04867443e-02 
87 1597.50 2.91881585e+00 1.13784792e-02 
86 1598.77 2.93690491e+00 9.93980188e-03 
85 1600.05 2.85016823e+00 1.12682981e-02 
84 1601.32 2.86315489e+00 1.03374589e-02 
83 1602.59 2.78805590e+00 1.08636543e-02 
82 1603.86 2.84688139e+00 1.02649555e-02 
81 1605.13 2.74180722e+00 1.07007092e-02 
80 1606.40 2.79326844e+00 1.04245255e-02 
79 1607.67 2.70620084e+00 1.00815371e-02 
78 1608.94 2.74560380e+00 1.03155868e-02 
77 1610.20 2.68510842e+00 1.04951086e-02 
76 1611.47 2.74108362e+00 9.74862184e-03 
75 1612.73 2.67436981e+00 1.02432845e-02 
74 1614.00 2.70947361e+00 9.27083194e-03 
73 1615.26 2.63702321e+00 1.01646893e-02 
72 1616.52 2.65528703e+00 9.75708105e-03 
71 1617.78 2.56364417e+00 1.01579335e-02 
70 1619.03 2.60498047e+00 9.80493147e-03 
69 1620.29 2.54281020e+00 9.55958478e-03 
68 1621.55 2.60718846e+00 9.75956023e-03 
67 1622.80 2.54451966e+00 1.11770770e-02 
66 1624.06 2.60284853e+00 9.79174115e-03 
65 1625.31 2.50995541e+00 1.12171909e-02 
64 1626.56 2.56669235e+00 9.68362484e-03 
63 1627.81 2.47280455e+00 1.11409370e-02 
62 1629.06 2.49261832e+00 1.06589347e-02 
61 1630.31 2.40861678e+00 1.09167434e-02 
60 1631.56 2.42652535e+00 9.80512239e-03 
59 1632.80 2.33688498e+00 1.11309523e-02 
58 1634.05 2.36285520e+00 1.04660997e-02 
57 1635.29 2.24880672e+00 1.04292305e-02 
56 1636.53 2.25666976e+00 1.00223050e-02 
55 1637.77 2.14054322e+00 1.02341045e-02 
54 1639.01 2.15525937e+00 8.99600983e-03 
53 1640.25 2.08205295e+00 1.00441631e-02 
