% C0 (TOA Count Rate, /ms) for 4STAR NIR spectrometer (512 channels) derived from 4STAR_20160908starsun.mat and recorded on 2017-05-08 14:34:43.
% Data outside 2.0x the STD of 501 nm Langley residuals were screened out.
Pix Wavelength C0 C0err
511 949.79 5.39900255e+00 1.61970079e-01 
510 949.79 5.54620647e+00 1.66386187e-01 
509 951.68 5.92822790e+00 1.77846834e-01 
508 953.57 5.99136639e+00 1.79740995e-01 
507 955.46 6.44308758e+00 1.93292633e-01 
506 957.34 6.53514338e+00 1.96054295e-01 
505 959.22 6.97993851e+00 2.09398150e-01 
504 961.10 7.06276131e+00 2.11882845e-01 
503 962.98 7.45610523e+00 2.23683164e-01 
502 964.85 7.45992136e+00 2.23797634e-01 
501 966.72 7.93444347e+00 2.38033310e-01 
500 968.59 7.96122265e+00 2.38836676e-01 
499 970.45 8.35630703e+00 2.50689209e-01 
498 972.32 8.32624817e+00 2.49787450e-01 
497 974.18 8.65287209e+00 2.59586155e-01 
496 976.04 8.56723404e+00 2.57017016e-01 
495 977.89 8.88995934e+00 2.66698778e-01 
494 979.74 8.80142307e+00 2.64042705e-01 
493 981.59 9.07855892e+00 2.72356778e-01 
492 983.44 8.93533516e+00 2.68060058e-01 
491 985.29 9.19252586e+00 2.75775790e-01 
490 987.13 8.99082375e+00 2.69724727e-01 
489 988.97 9.21128559e+00 2.76338577e-01 
488 990.81 9.05183887e+00 2.71555156e-01 
487 992.65 9.20157051e+00 2.76047111e-01 
486 994.48 9.02522278e+00 2.70756692e-01 
485 996.31 9.16217709e+00 2.74865299e-01 
484 998.14 8.93880844e+00 2.68164247e-01 
483 999.97 9.05694389e+00 2.71708310e-01 
482 1001.79 8.79335022e+00 2.63800502e-01 
481 1003.62 8.86100101e+00 2.65830040e-01 
480 1005.44 8.64934444e+00 2.59480327e-01 
479 1007.25 8.89200687e+00 2.66760200e-01 
478 1009.07 8.67972469e+00 2.60391742e-01 
477 1010.88 8.84336472e+00 2.65300930e-01 
476 1012.69 8.57235813e+00 2.57170737e-01 
475 1014.50 8.67860508e+00 2.60358155e-01 
474 1016.31 8.47327328e+00 2.54198194e-01 
473 1018.11 8.59968281e+00 2.57990479e-01 
472 1019.91 8.35285759e+00 2.50585735e-01 
471 1021.71 8.48782253e+00 2.54634678e-01 
470 1023.51 8.26734352e+00 2.48020306e-01 
469 1025.30 8.42879486e+00 2.52863854e-01 
468 1027.09 8.32890224e+00 2.49867067e-01 
467 1028.88 8.46579742e+00 2.53973931e-01 
466 1030.67 8.32017136e+00 2.49605134e-01 
465 1032.46 8.49752331e+00 2.54925698e-01 
464 1034.24 8.32583714e+00 2.49775112e-01 
463 1036.02 8.51541138e+00 2.55462348e-01 
462 1037.80 8.39579010e+00 2.51873702e-01 
461 1039.58 8.58328152e+00 2.57498443e-01 
460 1041.35 8.45744324e+00 2.53723294e-01 
459 1043.12 8.60358906e+00 2.58107662e-01 
458 1044.89 8.53107738e+00 2.55932331e-01 
457 1046.66 8.75271511e+00 2.62581468e-01 
456 1048.43 8.69113827e+00 2.60734141e-01 
455 1050.19 8.90945435e+00 2.67283618e-01 
454 1051.95 8.77861786e+00 2.63358533e-01 
453 1053.71 9.03648949e+00 2.71094680e-01 
452 1055.47 8.88567257e+00 2.66570181e-01 
451 1057.23 9.01415634e+00 2.70424694e-01 
450 1058.98 8.86584377e+00 2.65975326e-01 
449 1060.73 9.02845573e+00 2.70853668e-01 
448 1062.48 8.82838726e+00 2.64851630e-01 
447 1064.23 8.95689487e+00 2.68706858e-01 
446 1065.97 8.67136574e+00 2.60140985e-01 
445 1067.71 8.70202160e+00 2.61060655e-01 
444 1069.46 8.50917339e+00 2.55275190e-01 
443 1071.19 8.62080383e+00 2.58624107e-01 
442 1072.93 8.47456169e+00 2.54236847e-01 
441 1074.67 8.56507301e+00 2.56952196e-01 
440 1076.40 8.36311531e+00 2.50893474e-01 
439 1078.13 8.39527702e+00 2.51858324e-01 
438 1079.86 8.16116524e+00 2.44834960e-01 
437 1081.58 8.24010468e+00 2.47203141e-01 
436 1083.31 8.14265060e+00 2.44279519e-01 
435 1085.03 8.31587029e+00 2.49476105e-01 
434 1086.75 8.24699593e+00 2.47409880e-01 
433 1088.47 8.40693283e+00 2.52207994e-01 
432 1090.19 8.32340717e+00 2.49702215e-01 
431 1091.90 8.43860149e+00 2.53158033e-01 
430 1093.61 8.35509777e+00 2.50652939e-01 
429 1095.33 8.56303310e+00 2.56890982e-01 
428 1097.03 8.61822701e+00 2.58546799e-01 
427 1098.74 8.87028408e+00 2.66108513e-01 
426 1100.45 8.89165115e+00 2.66749531e-01 
425 1102.15 9.17808056e+00 2.75342405e-01 
424 1103.85 9.22109604e+00 2.76632875e-01 
423 1105.55 9.50232601e+00 2.85069793e-01 
422 1107.25 9.44314957e+00 2.83294499e-01 
421 1108.94 9.62445736e+00 2.88733721e-01 
420 1110.64 9.50053406e+00 2.85016030e-01 
419 1112.33 9.58640671e+00 2.87592202e-01 
418 1114.02 9.35108757e+00 2.80532628e-01 
417 1115.70 9.36459064e+00 2.80937731e-01 
416 1117.39 9.14150524e+00 2.74245143e-01 
415 1119.07 9.14638901e+00 2.74391681e-01 
414 1120.76 9.05367088e+00 2.71610141e-01 
413 1122.44 9.16600704e+00 2.74980217e-01 
412 1124.12 9.11798573e+00 2.73539573e-01 
411 1125.79 9.30953884e+00 2.79286176e-01 
410 1127.47 9.40417957e+00 2.82125384e-01 
409 1129.14 9.61031151e+00 2.88309336e-01 
408 1130.81 9.31237984e+00 2.79371381e-01 
407 1132.48 9.26336193e+00 2.77900845e-01 
406 1134.15 9.09284878e+00 2.72785455e-01 
405 1135.81 9.30532646e+00 2.79159784e-01 
404 1137.48 9.53448296e+00 2.86034495e-01 
403 1139.14 9.73135281e+00 2.91940570e-01 
402 1140.80 9.51534081e+00 2.85460234e-01 
401 1142.46 9.53925133e+00 2.86177546e-01 
400 1144.12 9.32795048e+00 2.79838502e-01 
399 1145.77 9.39309406e+00 2.81792819e-01 
398 1147.43 9.34315014e+00 2.80294508e-01 
397 1149.08 9.45224094e+00 2.83567220e-01 
396 1150.73 9.38798523e+00 2.81639546e-01 
395 1152.38 9.58267593e+00 2.87480265e-01 
394 1154.02 9.52464294e+00 2.85739303e-01 
393 1155.67 9.67257214e+00 2.90177166e-01 
392 1157.31 9.48514366e+00 2.84554303e-01 
391 1158.95 9.53296852e+00 2.85989046e-01 
390 1160.59 9.40297508e+00 2.82089263e-01 
389 1162.23 9.51438618e+00 2.85431594e-01 
388 1163.87 9.40812588e+00 2.82243788e-01 
387 1165.50 9.46173096e+00 2.83851922e-01 
386 1167.13 9.35344505e+00 2.80603349e-01 
385 1168.76 9.45766449e+00 2.83729941e-01 
384 1170.39 9.35126877e+00 2.80538052e-01 
383 1172.02 9.34237003e+00 2.80271113e-01 
382 1173.65 9.15513706e+00 2.74654120e-01 
381 1175.27 9.11097145e+00 2.73329139e-01 
380 1176.90 8.98580837e+00 2.69574255e-01 
379 1178.52 8.95794296e+00 2.68738300e-01 
378 1180.14 8.75932693e+00 2.62779802e-01 
377 1181.75 8.74456215e+00 2.62336850e-01 
376 1183.37 8.57184982e+00 2.57155508e-01 
375 1184.99 8.59082794e+00 2.57724851e-01 
374 1186.60 8.43847466e+00 2.53154248e-01 
373 1188.21 8.38300228e+00 2.51490057e-01 
372 1189.82 8.27088642e+00 2.48126596e-01 
371 1191.43 8.45579624e+00 2.53673881e-01 
370 1193.04 8.37146854e+00 2.51144052e-01 
369 1194.64 8.36775303e+00 2.51032591e-01 
368 1196.24 8.20957661e+00 2.46287301e-01 
367 1197.85 8.27523804e+00 2.48257145e-01 
366 1199.45 8.16769791e+00 2.45030940e-01 
365 1201.05 8.25806713e+00 2.47742012e-01 
364 1202.64 8.18517017e+00 2.45555103e-01 
363 1204.24 8.20125675e+00 2.46037707e-01 
362 1205.83 8.09461212e+00 2.42838368e-01 
361 1207.43 8.08164215e+00 2.42449269e-01 
360 1209.02 8.01650620e+00 2.40495190e-01 
359 1210.61 8.14662361e+00 2.44398713e-01 
358 1212.19 8.09997749e+00 2.42999330e-01 
357 1213.78 8.21845055e+00 2.46553510e-01 
356 1215.37 8.18397617e+00 2.45519280e-01 
355 1216.95 8.21787643e+00 2.46536300e-01 
354 1218.53 8.17550659e+00 2.45265201e-01 
353 1220.11 8.25216866e+00 2.47565061e-01 
352 1221.69 8.23750401e+00 2.47125119e-01 
351 1223.27 8.26861286e+00 2.48058379e-01 
350 1224.84 8.26149178e+00 2.47844756e-01 
349 1226.42 8.29622078e+00 2.48886630e-01 
348 1227.99 8.26669884e+00 2.48000965e-01 
347 1229.56 8.37652779e+00 2.51295835e-01 
346 1231.13 8.29878712e+00 2.48963609e-01 
345 1232.70 8.36997795e+00 2.51099348e-01 
344 1234.27 8.33005810e+00 2.49901742e-01 
343 1235.84 8.35510540e+00 2.50653148e-01 
342 1237.40 8.29815578e+00 2.48944670e-01 
341 1238.96 8.28041077e+00 2.48412326e-01 
340 1240.52 8.14518070e+00 2.44355425e-01 
339 1242.08 8.26124001e+00 2.47837201e-01 
338 1243.64 8.23539352e+00 2.47061804e-01 
337 1245.20 8.26541805e+00 2.47962534e-01 
336 1246.75 8.24628639e+00 2.47388586e-01 
335 1248.31 8.32144737e+00 2.49643415e-01 
334 1249.86 8.25135612e+00 2.47540683e-01 
333 1251.41 8.26729012e+00 2.48018697e-01 
332 1252.96 8.20096684e+00 2.46029004e-01 
331 1254.51 8.22588921e+00 2.46776670e-01 
330 1256.06 8.18966961e+00 2.45690092e-01 
329 1257.61 8.15009880e+00 2.44502962e-01 
328 1259.15 8.12419987e+00 2.43726000e-01 
327 1260.69 8.11394024e+00 2.43418202e-01 
326 1262.23 8.07145596e+00 2.42143676e-01 
325 1263.77 8.09490013e+00 2.42847010e-01 
324 1265.31 8.00192833e+00 2.40057856e-01 
323 1266.85 8.07039165e+00 2.42111742e-01 
322 1268.39 8.09272861e+00 2.42781863e-01 
321 1269.92 8.15273666e+00 2.44582102e-01 
320 1271.46 8.20511150e+00 2.46153340e-01 
319 1272.99 8.15001583e+00 2.44500473e-01 
318 1274.52 8.09220409e+00 2.42766127e-01 
317 1276.05 8.11455154e+00 2.43436545e-01 
316 1277.58 7.97121668e+00 2.39136502e-01 
315 1279.10 7.79333544e+00 2.33800068e-01 
314 1280.63 7.74401522e+00 2.32320458e-01 
313 1282.15 7.73484421e+00 2.32045323e-01 
312 1283.68 7.83299065e+00 2.34989718e-01 
311 1285.20 7.97870445e+00 2.39361137e-01 
310 1286.72 7.96738815e+00 2.39021644e-01 
309 1288.24 7.97084999e+00 2.39125505e-01 
308 1289.75 7.87083578e+00 2.36125067e-01 
307 1291.27 7.88155031e+00 2.36446515e-01 
306 1292.78 7.93223238e+00 2.37966970e-01 
305 1294.30 7.95187616e+00 2.38556281e-01 
304 1295.81 7.87189960e+00 2.36156985e-01 
303 1297.32 7.88470984e+00 2.36541301e-01 
302 1298.83 7.86010361e+00 2.35803112e-01 
301 1300.34 7.82937193e+00 2.34881163e-01 
300 1301.85 7.77981281e+00 2.33394384e-01 
299 1303.35 7.74233341e+00 2.32270002e-01 
298 1304.86 7.70046711e+00 2.31014013e-01 
297 1306.36 7.69022036e+00 2.30706617e-01 
296 1307.86 7.63391018e+00 2.29017302e-01 
295 1309.36 7.53554487e+00 2.26066351e-01 
294 1310.86 7.46986818e+00 2.24096045e-01 
293 1312.36 7.39093065e+00 2.21727923e-01 
292 1313.86 7.34720612e+00 2.20416188e-01 
291 1315.36 7.36643219e+00 2.20992967e-01 
290 1316.85 7.29911804e+00 2.18973547e-01 
289 1318.34 7.28120232e+00 2.18436062e-01 
288 1319.84 7.23169899e+00 2.16950968e-01 
287 1321.33 7.23188639e+00 2.16956586e-01 
286 1322.82 7.19083405e+00 2.15725020e-01 
285 1324.30 7.21083260e+00 2.16324985e-01 
284 1325.79 7.12055302e+00 2.13616595e-01 
283 1327.28 7.03631592e+00 2.11089477e-01 
282 1328.76 6.90676308e+00 2.07202896e-01 
281 1330.25 6.84674263e+00 2.05402285e-01 
280 1331.73 6.76818275e+00 2.03045487e-01 
279 1333.21 6.78557301e+00 2.03567192e-01 
278 1334.69 6.76447248e+00 2.02934176e-01 
277 1336.17 6.70799065e+00 2.01239720e-01 
276 1337.65 6.66489649e+00 1.99946895e-01 
275 1339.12 6.57734203e+00 1.97320268e-01 
274 1340.60 6.53137302e+00 1.95941195e-01 
273 1342.07 6.45667410e+00 1.93700224e-01 
272 1343.55 6.33261585e+00 1.89978480e-01 
271 1345.02 6.04187155e+00 1.81256145e-01 
270 1346.49 5.82939053e+00 1.74881712e-01 
269 1347.96 5.56890106e+00 1.67067036e-01 
268 1349.43 5.32648849e+00 1.59794658e-01 
267 1350.89 5.01474857e+00 1.50442451e-01 
266 1352.36 4.63413334e+00 1.39024004e-01 
265 1353.82 4.34114313e+00 1.30234301e-01 
264 1355.29 4.10134363e+00 1.23040311e-01 
263 1356.75 3.92448521e+00 1.17734559e-01 
262 1358.21 3.61660147e+00 1.08498044e-01 
261 1359.67 3.33303785e+00 9.99911353e-02 
260 1361.13 3.16886902e+00 9.50660706e-02 
259 1362.59 3.12681460e+00 9.38044414e-02 
258 1364.04 3.29130363e+00 9.87391099e-02 
257 1365.50 3.25277567e+00 9.75832716e-02 
256 1366.95 3.27159476e+00 9.81478393e-02 
255 1368.41 3.16648602e+00 9.49945822e-02 
254 1369.86 3.21466732e+00 9.64400172e-02 
253 1371.31 3.31088710e+00 9.93266106e-02 
252 1372.76 3.29359412e+00 9.88078266e-02 
251 1374.21 3.30962825e+00 9.92888510e-02 
250 1375.65 3.16081238e+00 9.48243737e-02 
249 1377.10 2.85386848e+00 8.56160522e-02 
248 1378.55 2.54504919e+00 7.63514787e-02 
247 1379.99 2.16624188e+00 6.49872571e-02 
246 1381.43 2.04562569e+00 6.13687709e-02 
245 1382.87 2.10150814e+00 6.30452409e-02 
244 1384.32 2.26814699e+00 6.80444092e-02 
243 1385.75 2.47960925e+00 7.43882805e-02 
242 1387.19 2.72201419e+00 8.16604272e-02 
241 1388.63 2.76884794e+00 8.30654353e-02 
240 1390.07 2.85141468e+00 8.55424404e-02 
239 1391.50 2.84359264e+00 8.53077769e-02 
238 1392.94 2.61611104e+00 7.84833282e-02 
237 1394.37 2.68625951e+00 8.05877820e-02 
236 1395.80 2.86800051e+00 8.60400125e-02 
235 1397.23 2.78663969e+00 8.35991874e-02 
234 1398.66 2.93559384e+00 8.80678147e-02 
233 1400.09 3.07286978e+00 9.21860933e-02 
232 1401.52 2.98182774e+00 8.94548297e-02 
231 1402.94 3.13833904e+00 9.41501707e-02 
230 1404.37 3.23272300e+00 9.69816893e-02 
229 1405.79 3.16640902e+00 9.49922726e-02 
228 1407.22 3.26616693e+00 9.79850069e-02 
227 1408.64 3.39637089e+00 1.01891130e-01 
226 1410.06 3.53563142e+00 1.06068939e-01 
225 1411.48 3.54244232e+00 1.06273271e-01 
224 1412.90 3.69085312e+00 1.10725597e-01 
223 1414.32 3.73010063e+00 1.11903019e-01 
222 1415.73 3.73274684e+00 1.11982405e-01 
221 1417.15 3.80453777e+00 1.14136130e-01 
220 1418.56 3.90369558e+00 1.17110871e-01 
219 1419.98 3.83444667e+00 1.15033403e-01 
218 1421.39 3.91155314e+00 1.17346592e-01 
217 1422.80 3.96855998e+00 1.19056799e-01 
216 1424.21 4.02833509e+00 1.20850056e-01 
215 1425.62 4.01163197e+00 1.20348960e-01 
214 1427.03 4.09246683e+00 1.22774005e-01 
213 1428.44 3.99615574e+00 1.19884670e-01 
212 1429.84 3.92787385e+00 1.17836215e-01 
211 1431.25 3.89913368e+00 1.16974011e-01 
210 1432.65 3.90787029e+00 1.17236108e-01 
209 1434.06 3.91688418e+00 1.17506526e-01 
208 1435.46 4.00568056e+00 1.20170414e-01 
207 1436.86 4.02149153e+00 1.20644748e-01 
206 1438.26 4.02569580e+00 1.20770872e-01 
205 1439.66 4.02896738e+00 1.20869018e-01 
204 1441.05 4.10157776e+00 1.23047329e-01 
203 1442.45 4.01260662e+00 1.20378196e-01 
202 1443.85 4.03541756e+00 1.21062525e-01 
201 1445.24 4.08980370e+00 1.22694112e-01 
200 1446.64 4.13223219e+00 1.23966962e-01 
199 1448.03 4.11050129e+00 1.23315036e-01 
198 1449.42 4.20043659e+00 1.26013100e-01 
197 1450.81 4.18933296e+00 1.25679985e-01 
196 1452.20 4.19593763e+00 1.25878125e-01 
195 1453.59 4.29381800e+00 1.28814533e-01 
194 1454.97 4.38350439e+00 1.31505132e-01 
193 1456.36 4.37214994e+00 1.31164491e-01 
192 1457.75 4.40652227e+00 1.32195666e-01 
191 1459.13 4.34724045e+00 1.30417213e-01 
190 1460.51 4.35687017e+00 1.30706102e-01 
189 1461.90 4.23575211e+00 1.27072558e-01 
188 1463.28 4.23658562e+00 1.27097562e-01 
187 1464.66 4.16113091e+00 1.24833927e-01 
186 1466.04 4.21189165e+00 1.26356751e-01 
185 1467.41 4.11317205e+00 1.23395160e-01 
184 1468.79 4.08189869e+00 1.22456960e-01 
183 1470.17 4.01669836e+00 1.20500952e-01 
182 1471.54 4.06873226e+00 1.22061968e-01 
181 1472.92 4.09227133e+00 1.22768141e-01 
180 1474.29 4.16174793e+00 1.24852441e-01 
179 1475.66 4.13593054e+00 1.24077916e-01 
178 1477.03 4.11735630e+00 1.23520687e-01 
177 1478.40 4.06866169e+00 1.22059852e-01 
176 1479.77 4.12589550e+00 1.23776868e-01 
175 1481.14 4.09442663e+00 1.22832797e-01 
174 1482.51 4.18336153e+00 1.25500843e-01 
173 1483.87 4.11055279e+00 1.23316586e-01 
172 1485.24 4.10643148e+00 1.23192944e-01 
171 1486.60 4.04438305e+00 1.21331491e-01 
170 1487.96 4.09527493e+00 1.22858249e-01 
169 1489.32 4.03333521e+00 1.21000059e-01 
168 1490.68 4.17728519e+00 1.25318557e-01 
167 1492.04 4.14229727e+00 1.24268919e-01 
166 1493.40 4.15979910e+00 1.24793977e-01 
165 1494.76 4.08978462e+00 1.22693539e-01 
164 1496.12 4.13353157e+00 1.24005944e-01 
163 1497.47 4.08715439e+00 1.22614630e-01 
162 1498.83 4.14751482e+00 1.24425441e-01 
161 1500.18 4.01299763e+00 1.20389931e-01 
160 1501.53 3.97160411e+00 1.19148120e-01 
159 1502.89 3.84668040e+00 1.15400411e-01 
158 1504.24 3.86461401e+00 1.15938418e-01 
157 1505.59 3.86976671e+00 1.16093002e-01 
156 1506.93 3.98855710e+00 1.19656712e-01 
155 1508.28 3.99634862e+00 1.19890459e-01 
154 1509.63 4.02757645e+00 1.20827295e-01 
153 1510.97 3.96708322e+00 1.19012497e-01 
152 1512.32 4.01743793e+00 1.20523140e-01 
151 1513.66 3.93434596e+00 1.18030377e-01 
150 1515.00 3.99285197e+00 1.19785562e-01 
149 1516.34 3.94306135e+00 1.18291840e-01 
148 1517.69 3.98172283e+00 1.19451687e-01 
147 1519.02 3.91817260e+00 1.17545180e-01 
146 1520.36 3.94013739e+00 1.18204124e-01 
145 1521.70 3.86784959e+00 1.16035491e-01 
144 1523.04 3.93586969e+00 1.18076093e-01 
143 1524.37 3.87465739e+00 1.16239719e-01 
142 1525.71 3.91792750e+00 1.17537826e-01 
141 1527.04 3.84785223e+00 1.15435570e-01 
140 1528.37 3.89365029e+00 1.16809510e-01 
139 1529.70 3.80869436e+00 1.14260830e-01 
138 1531.03 3.85379744e+00 1.15613922e-01 
137 1532.36 3.79365396e+00 1.13809615e-01 
136 1533.69 3.84242773e+00 1.15272835e-01 
135 1535.02 3.75150061e+00 1.12545021e-01 
134 1536.34 3.79303813e+00 1.13791145e-01 
133 1537.67 3.69652629e+00 1.10895790e-01 
132 1538.99 3.75214481e+00 1.12564348e-01 
131 1540.31 3.69926834e+00 1.10978052e-01 
130 1541.64 3.73226452e+00 1.11967936e-01 
129 1542.96 3.69558954e+00 1.10867687e-01 
128 1544.28 3.72860432e+00 1.11858130e-01 
127 1545.60 3.64072537e+00 1.09221764e-01 
126 1546.91 3.70833898e+00 1.11250170e-01 
125 1548.23 3.62456322e+00 1.08736895e-01 
124 1549.55 3.64699745e+00 1.09409921e-01 
123 1550.86 3.55830097e+00 1.06749028e-01 
122 1552.18 3.59389234e+00 1.07816771e-01 
121 1553.49 3.52729750e+00 1.05818927e-01 
120 1554.80 3.61033821e+00 1.08310148e-01 
119 1556.11 3.53779411e+00 1.06133826e-01 
118 1557.42 3.58341169e+00 1.07502349e-01 
117 1558.73 3.50331378e+00 1.05099410e-01 
116 1560.04 3.52273226e+00 1.05681971e-01 
115 1561.34 3.44201469e+00 1.03260443e-01 
114 1562.65 3.50176144e+00 1.05052844e-01 
113 1563.95 3.41992998e+00 1.02597900e-01 
112 1565.26 3.49455285e+00 1.04836583e-01 
111 1566.56 3.37438059e+00 1.01231419e-01 
110 1567.86 3.42880225e+00 1.02864064e-01 
109 1569.16 3.34756613e+00 1.00426987e-01 
108 1570.46 3.36315703e+00 1.00894712e-01 
107 1571.76 3.24767709e+00 9.74303111e-02 
106 1573.05 3.23246598e+00 9.69739780e-02 
105 1574.35 3.12565565e+00 9.37696695e-02 
104 1575.64 3.13912725e+00 9.41738188e-02 
103 1576.94 3.09723997e+00 9.29171965e-02 
102 1578.23 3.16235995e+00 9.48707983e-02 
101 1579.52 3.11605501e+00 9.34816524e-02 
100 1580.81 3.19796467e+00 9.59389433e-02 
99 1582.10 3.11853385e+00 9.35560167e-02 
98 1583.39 3.17044711e+00 9.51134115e-02 
97 1584.68 3.09878445e+00 9.29635316e-02 
96 1585.97 3.08399606e+00 9.25198793e-02 
95 1587.25 2.96723127e+00 8.90169367e-02 
94 1588.54 2.99063873e+00 8.97191614e-02 
93 1589.82 2.92239857e+00 8.76719579e-02 
92 1591.10 3.02626634e+00 9.07879919e-02 
91 1592.38 2.99164152e+00 8.97492468e-02 
90 1593.66 3.05540490e+00 9.16621462e-02 
89 1594.94 2.96120882e+00 8.88362676e-02 
88 1596.22 3.03326011e+00 9.09978002e-02 
87 1597.50 2.93282366e+00 8.79847109e-02 
86 1598.77 2.98526907e+00 8.95580724e-02 
85 1600.05 2.89280963e+00 8.67842883e-02 
84 1601.32 2.93257380e+00 8.79772156e-02 
83 1602.59 2.84223676e+00 8.52671042e-02 
82 1603.86 2.90623474e+00 8.71870443e-02 
81 1605.13 2.78547955e+00 8.35643858e-02 
80 1606.40 2.85068965e+00 8.55206922e-02 
79 1607.67 2.73954320e+00 8.21862966e-02 
78 1608.94 2.78563356e+00 8.35690051e-02 
77 1610.20 2.69679570e+00 8.09038728e-02 
76 1611.47 2.76434803e+00 8.29304382e-02 
75 1612.73 2.67073464e+00 8.01220387e-02 
74 1614.00 2.71644211e+00 8.14932659e-02 
73 1615.26 2.61371946e+00 7.84115866e-02 
72 1616.52 2.64286375e+00 7.92859122e-02 
71 1617.78 2.52248335e+00 7.56745040e-02 
70 1619.03 2.57787085e+00 7.73361251e-02 
69 1620.29 2.50486398e+00 7.51459226e-02 
68 1621.55 2.57174540e+00 7.71523640e-02 
67 1622.80 2.49757242e+00 7.49271736e-02 
66 1624.06 2.56501579e+00 7.69504756e-02 
65 1625.31 2.46012592e+00 7.38037750e-02 
64 1626.56 2.53995109e+00 7.61985332e-02 
63 1627.81 2.42978811e+00 7.28936419e-02 
62 1629.06 2.46985507e+00 7.40956515e-02 
61 1630.31 2.36538148e+00 7.09614456e-02 
60 1631.56 2.40956235e+00 7.22868741e-02 
59 1632.80 2.32489681e+00 6.97469041e-02 
58 1634.05 2.36848426e+00 7.10545257e-02 
57 1635.29 2.23517227e+00 6.70551658e-02 
56 1636.53 2.26870561e+00 6.80611655e-02 
55 1637.77 2.12934756e+00 6.38804287e-02 
54 1639.01 2.16675830e+00 6.50027469e-02 
53 1640.25 2.08930063e+00 6.26790226e-02 
52 1641.49 2.11059237e+00 6.33177683e-02 
51 1642.73 2.04681802e+00 6.14045411e-02 
