% C0 (TOA Count Rate, /ms) for 4STAR NIR spectrometer (512 channels) derived from (SEE Original files for sources) and recorded on 2017-06-26 18:40:38.
% Langley at MLO and airborne Data outside 2.0x the STD of 501 nm Langley residuals were screened out. 
% Including high Altitude rate spectra, matched to splined stratospheric AOD measured at MLO.
% Averages of c0 from multiple days including: , infl-ig-ht, infl-ig-ht, infl-ig-ht, high- a-lt. See the list of files below
% 20160918_NIR_C0_refined_Langley_airborne_ORACLES_v1.dat
% 20160924_NIR_C0_refined_Langley_airborne_ORACLES_v1.dat
% 20160920_NIR_C0_refined_langley_4STAR.dat
% 20160920_NIR_C0_refined_high_alt_low_m_fromBonanza.dat
Pix Wavelength C0 C0err
511 949.79 5.72943545e+00 2.67592542e-01 
510 949.79 5.86325943e+00 2.63026459e-01 
509 951.68 6.25456703e+00 2.51542208e-01 
508 953.57 6.28381074e+00 2.45142731e-01 
507 955.46 6.72697485e+00 2.27759800e-01 
506 957.34 6.80397439e+00 2.02489604e-01 
505 959.22 7.23993480e+00 1.95241856e-01 
504 961.10 7.26266944e+00 1.38800775e-01 
503 962.98 7.64488375e+00 1.25857799e-01 
502 964.85 7.60338569e+00 8.75046711e-02 
501 966.72 8.05037522e+00 6.55204383e-02 
500 968.59 8.04457700e+00 6.13214483e-02 
499 970.45 8.43513393e+00 3.26859064e-02 
498 972.32 8.41145420e+00 5.74933236e-02 
497 974.18 8.75468946e+00 5.92511817e-02 
496 976.04 8.66473865e+00 4.64286640e-02 
495 977.89 8.99271893e+00 5.96753378e-02 
494 979.74 8.86564541e+00 6.23235029e-02 
493 981.59 9.12886668e+00 6.58807611e-02 
492 983.44 8.98733639e+00 7.32443462e-02 
491 985.29 9.22274971e+00 9.28277468e-02 
490 987.13 8.99228072e+00 9.97122179e-02 
489 988.97 9.21990919e+00 1.14744615e-01 
488 990.81 9.05168343e+00 9.96572616e-02 
487 992.65 9.23195934e+00 1.12652363e-01 
486 994.48 9.03160143e+00 1.13718247e-01 
485 996.31 9.16907549e+00 1.30178798e-01 
484 998.14 8.95143032e+00 1.09815693e-01 
483 999.97 9.09280133e+00 1.07326858e-01 
482 1001.79 8.82502127e+00 9.87644437e-02 
481 1003.62 8.89278603e+00 1.08178358e-01 
480 1005.44 8.68249702e+00 8.60213556e-02 
479 1007.25 8.90691209e+00 9.93320973e-02 
478 1009.07 8.70547843e+00 8.45855914e-02 
477 1010.88 8.85471272e+00 1.07144767e-01 
476 1012.69 8.58449888e+00 9.17432010e-02 
475 1014.50 8.70628571e+00 9.41073846e-02 
474 1016.31 8.48292661e+00 9.67405807e-02 
473 1018.11 8.62631440e+00 9.52698382e-02 
472 1019.91 8.37418103e+00 9.75916024e-02 
471 1021.71 8.52973223e+00 1.05459318e-01 
470 1023.51 8.29855418e+00 9.35147324e-02 
469 1025.30 8.46110106e+00 1.01790141e-01 
468 1027.09 8.36598158e+00 8.58570162e-02 
467 1028.88 8.50296640e+00 1.04267071e-01 
466 1030.67 8.35363221e+00 9.17236027e-02 
465 1032.46 8.51072597e+00 1.08442537e-01 
464 1034.24 8.34493089e+00 1.08438815e-01 
463 1036.02 8.53597498e+00 1.17887341e-01 
462 1037.80 8.39651156e+00 1.08160120e-01 
461 1039.58 8.61239433e+00 1.06335703e-01 
460 1041.35 8.48647309e+00 1.00428010e-01 
459 1043.12 8.63278460e+00 9.01687899e-02 
458 1044.89 8.55628753e+00 9.31451889e-02 
457 1046.66 8.76507521e+00 1.02932769e-01 
456 1048.43 8.70977187e+00 9.25143814e-02 
455 1050.19 8.93017077e+00 9.89638294e-02 
454 1051.95 8.80143547e+00 8.05287360e-02 
453 1053.71 9.06428480e+00 9.52074154e-02 
452 1055.47 8.91429591e+00 8.40558026e-02 
451 1057.23 9.05246139e+00 9.43763155e-02 
450 1058.98 8.89897037e+00 7.73726576e-02 
449 1060.73 9.07019902e+00 9.69303904e-02 
448 1062.48 8.84949660e+00 9.47191548e-02 
447 1064.23 8.95631337e+00 1.02491268e-01 
446 1065.97 8.65703916e+00 1.08754611e-01 
445 1067.71 8.70118713e+00 1.28861925e-01 
444 1069.46 8.50633931e+00 9.88835162e-02 
443 1071.19 8.64442325e+00 9.24163558e-02 
442 1072.93 8.48043919e+00 9.63938574e-02 
441 1074.67 8.56941867e+00 1.04791239e-01 
440 1076.40 8.37255883e+00 9.88569609e-02 
439 1078.13 8.39276981e+00 1.12451317e-01 
438 1079.86 8.18835926e+00 8.53461518e-02 
437 1081.58 8.27918411e+00 9.01327091e-02 
436 1083.31 8.16754389e+00 8.14726347e-02 
435 1085.03 8.36194515e+00 8.55227717e-02 
434 1086.75 8.30804777e+00 7.66248121e-02 
433 1088.47 8.47074509e+00 8.14214820e-02 
432 1090.19 8.37591076e+00 8.74000389e-02 
431 1091.90 8.48707223e+00 8.14541536e-02 
430 1093.61 8.39302278e+00 7.27247913e-02 
429 1095.33 8.62013388e+00 6.33254259e-02 
428 1097.03 8.67404485e+00 5.67938602e-02 
427 1098.74 8.92692614e+00 6.53798258e-02 
426 1100.45 8.96745920e+00 6.32560739e-02 
425 1102.15 9.29461979e+00 5.44700211e-02 
424 1103.85 9.32165957e+00 6.11667869e-02 
423 1105.55 9.62942290e+00 4.73155986e-02 
422 1107.25 9.62125444e+00 7.22022907e-02 
421 1108.94 9.88942361e+00 1.22011208e-01 
420 1110.64 9.83554697e+00 1.80947555e-01 
419 1112.33 1.01267962e+01 3.31473875e-01 
418 1114.02 1.00962465e+01 5.47493239e-01 
417 1115.70 1.03176098e+01 7.09438731e-01 
416 1117.39 1.01909895e+01 7.87572271e-01 
415 1119.07 1.03236642e+01 9.10168230e-01 
414 1120.76 1.02455869e+01 9.84399249e-01 
413 1122.44 1.04933295e+01 1.07692904e+00 
412 1124.12 1.03926997e+01 1.05993654e+00 
411 1125.79 1.04982779e+01 9.66974203e-01 
410 1127.47 1.03836300e+01 7.99117223e-01 
409 1129.14 1.05009141e+01 6.90729310e-01 
408 1130.81 1.04296379e+01 8.68220299e-01 
407 1132.48 1.05594385e+01 9.72643004e-01 
406 1134.15 1.03693480e+01 9.82789899e-01 
405 1135.81 1.03449709e+01 7.40060106e-01 
404 1137.48 1.02085454e+01 4.48415225e-01 
403 1139.14 1.03395822e+01 3.76398617e-01 
402 1140.80 1.01938064e+01 4.62612764e-01 
401 1142.46 1.03705411e+01 6.01610469e-01 
400 1144.12 1.02465711e+01 6.45475153e-01 
399 1145.77 1.03533718e+01 6.94061352e-01 
398 1147.43 1.02204084e+01 6.28490045e-01 
397 1149.08 1.02354290e+01 5.56446397e-01 
396 1150.73 1.01336134e+01 5.48046729e-01 
395 1152.38 1.02144091e+01 4.66372954e-01 
394 1154.02 1.00493562e+01 3.90517557e-01 
393 1155.67 1.01271956e+01 2.88977951e-01 
392 1157.31 9.89533734e+00 2.35838696e-01 
391 1158.95 9.84640718e+00 1.42004085e-01 
390 1160.59 9.68736529e+00 1.04297472e-01 
389 1162.23 9.74113536e+00 8.26486921e-02 
388 1163.87 9.58004284e+00 5.12147574e-02 
387 1165.50 9.61192227e+00 5.73141457e-02 
386 1167.13 9.47026634e+00 5.67861030e-02 
385 1168.76 9.56027341e+00 5.97923539e-02 
384 1170.39 9.47236657e+00 7.55812349e-02 
383 1172.02 9.45895767e+00 1.04358684e-01 
382 1173.65 9.26094270e+00 8.07213038e-02 
381 1175.27 9.24552298e+00 7.80269607e-02 
380 1176.90 9.09417296e+00 6.47359477e-02 
379 1178.52 9.11797905e+00 6.14542191e-02 
378 1180.14 8.88412547e+00 6.43939360e-02 
377 1181.75 8.86627078e+00 9.45487913e-02 
376 1183.37 8.67460298e+00 1.01317058e-01 
375 1184.99 8.71110249e+00 6.94897477e-02 
374 1186.60 8.53096390e+00 7.84444752e-02 
373 1188.21 8.48081279e+00 6.46948058e-02 
372 1189.82 8.36461067e+00 6.28191716e-02 
371 1191.43 8.54541206e+00 7.52417893e-02 
370 1193.04 8.43095064e+00 6.79991859e-02 
369 1194.64 8.42078114e+00 7.62829840e-02 
368 1196.24 8.29019880e+00 6.50086027e-02 
367 1197.85 8.36749911e+00 6.06462275e-02 
366 1199.45 8.24177122e+00 5.93153063e-02 
365 1201.05 8.32896280e+00 5.00907680e-02 
364 1202.64 8.24651408e+00 3.86949161e-02 
363 1204.24 8.28330493e+00 2.39983874e-02 
362 1205.83 8.13707089e+00 5.58436055e-02 
361 1207.43 8.15352559e+00 6.27826589e-02 
360 1209.02 8.10022354e+00 5.66667576e-02 
359 1210.61 8.22509384e+00 7.38073510e-02 
358 1212.19 8.19030905e+00 7.70185282e-02 
357 1213.78 8.31130552e+00 8.27764732e-02 
356 1215.37 8.23754453e+00 7.15786391e-02 
355 1216.95 8.30515814e+00 7.14612107e-02 
354 1218.53 8.26062536e+00 5.04103022e-02 
353 1220.11 8.31959200e+00 6.18329066e-02 
352 1221.69 8.30191040e+00 6.25095209e-02 
351 1223.27 8.34108901e+00 7.18637211e-02 
350 1224.84 8.31181431e+00 7.05870377e-02 
349 1226.42 8.34030366e+00 8.60952416e-02 
348 1227.99 8.28979755e+00 7.60819559e-02 
347 1229.56 8.41353416e+00 7.90776495e-02 
346 1231.13 8.33958936e+00 7.01781712e-02 
345 1232.70 8.40793705e+00 7.65536189e-02 
344 1234.27 8.36063599e+00 8.53500520e-02 
343 1235.84 8.38212919e+00 9.32819490e-02 
342 1237.40 8.29753995e+00 9.52631723e-02 
341 1238.96 8.29800868e+00 1.05779241e-01 
340 1240.52 8.13156700e+00 1.00191739e-01 
339 1242.08 8.24522519e+00 1.21090285e-01 
338 1243.64 8.20343637e+00 1.00307399e-01 
337 1245.20 8.23884105e+00 1.19219132e-01 
336 1246.75 8.22290277e+00 8.94130164e-02 
335 1248.31 8.30176878e+00 7.94825145e-02 
334 1249.86 8.21897102e+00 7.28037685e-02 
333 1251.41 8.27285815e+00 5.36042789e-02 
332 1252.96 8.17211294e+00 5.43147708e-02 
331 1254.51 8.23248625e+00 4.84323445e-02 
330 1256.06 8.16995191e+00 3.90889555e-02 
329 1257.61 8.15298295e+00 3.69643254e-02 
328 1259.15 8.06023276e+00 7.22092666e-02 
327 1260.69 8.05011463e+00 1.09795843e-01 
326 1262.23 7.93636310e+00 1.40376309e-01 
325 1263.77 7.94625842e+00 1.76436645e-01 
324 1265.31 7.86886763e+00 2.45337122e-01 
323 1266.85 7.92132139e+00 2.47964519e-01 
322 1268.39 7.91975606e+00 2.03005799e-01 
321 1269.92 8.01503694e+00 1.66820002e-01 
320 1271.46 8.10872197e+00 1.05608879e-01 
319 1272.99 8.11258984e+00 6.06866836e-02 
318 1274.52 8.07928204e+00 5.29444530e-02 
317 1276.05 8.12733412e+00 6.24412605e-02 
316 1277.58 7.99325562e+00 6.88146173e-02 
315 1279.10 7.83347487e+00 8.50794422e-02 
314 1280.63 7.77582157e+00 7.66847564e-02 
313 1282.15 7.75413549e+00 9.49017634e-02 
312 1283.68 7.85195148e+00 7.54892014e-02 
311 1285.20 8.02469719e+00 8.52416135e-02 
310 1286.72 8.01356542e+00 7.49924785e-02 
309 1288.24 8.03254092e+00 7.69879198e-02 
308 1289.75 7.91307139e+00 7.57549885e-02 
307 1291.27 7.92696524e+00 8.99440477e-02 
306 1292.78 7.96919477e+00 7.71836218e-02 
305 1294.30 7.97169328e+00 9.53534382e-02 
304 1295.81 7.89637446e+00 9.03671051e-02 
303 1297.32 7.91692912e+00 1.02103497e-01 
302 1298.83 7.84847486e+00 9.82702929e-02 
301 1300.34 7.82915986e+00 9.04081595e-02 
300 1301.85 7.80192423e+00 6.94364535e-02 
299 1303.35 7.78836990e+00 6.67754187e-02 
298 1304.86 7.75656271e+00 5.92769203e-02 
297 1306.36 7.75688541e+00 5.20639860e-02 
296 1307.86 7.70491731e+00 5.14747314e-02 
295 1309.36 7.62427950e+00 6.78177630e-02 
294 1310.86 7.56826091e+00 6.94212040e-02 
293 1312.36 7.50126886e+00 6.27282035e-02 
292 1313.86 7.49090123e+00 7.30179913e-02 
291 1315.36 7.48598373e+00 7.23709259e-02 
290 1316.85 7.44175052e+00 7.18173093e-02 
289 1318.34 7.42062449e+00 7.41991640e-02 
288 1319.84 7.41603577e+00 6.38175769e-02 
287 1321.33 7.40430069e+00 1.05361464e-01 
286 1322.82 7.33154917e+00 7.33206037e-02 
285 1324.30 7.37593102e+00 1.04567625e-01 
284 1325.79 7.32360339e+00 1.23110521e-01 
283 1327.28 7.25771069e+00 1.73359132e-01 
282 1328.76 7.21660244e+00 2.10814401e-01 
281 1330.25 7.21029091e+00 2.36359877e-01 
280 1331.73 7.13101911e+00 2.31600667e-01 
279 1333.21 7.13862014e+00 2.19004370e-01 
278 1334.69 7.10857963e+00 2.40580444e-01 
277 1336.17 7.04290748e+00 1.95603242e-01 
276 1337.65 7.00840235e+00 2.23792271e-01 
275 1339.12 6.91428292e+00 1.91730633e-01 
274 1340.60 6.91446460e+00 2.82541386e-01 
273 1342.07 6.95241428e+00 3.35782945e-01 
272 1343.55 6.92096388e+00 4.50848116e-01 
271 1345.02 6.91351760e+00 6.57328138e-01 
270 1346.49 6.83558595e+00 8.14474805e-01 
269 1347.96 6.84845507e+00 1.03897222e+00 
268 1349.43 6.79060710e+00 1.25538182e+00 
267 1350.89 6.74988484e+00 1.46802905e+00 
266 1352.36 6.76163089e+00 1.95375503e+00 
265 1353.82 6.67396939e+00 2.14990712e+00 
264 1355.29 6.76662469e+00 2.66748100e+00 
263 1356.75 6.88415360e+00 2.98184029e+00 
262 1358.21 7.02961243e+00 3.54976898e+00 
261 1359.67 7.19741856e+00 4.14096676e+00 
260 1361.13 7.29609400e+00 4.53690816e+00 
259 1362.59 7.04117305e+00 4.29883845e+00 
258 1364.04 6.82855575e+00 3.81003379e+00 
257 1365.50 6.85081290e+00 3.89515238e+00 
256 1366.95 6.80614178e+00 3.86321867e+00 
255 1368.41 6.89040691e+00 4.06762016e+00 
254 1369.86 6.67563635e+00 3.82861343e+00 
253 1371.31 6.12153225e+00 2.92480130e+00 
252 1372.76 5.70739842e+00 2.44451447e+00 
251 1374.21 5.22838688e+00 1.83700445e+00 
250 1375.65 4.76774949e+00 1.55152680e+00 
249 1377.10 4.42830145e+00 1.43533310e+00 
248 1378.55 4.18832344e+00 1.56934679e+00 
247 1379.99 3.99102104e+00 1.75615661e+00 
246 1381.43 4.22141653e+00 2.25736299e+00 
245 1382.87 4.32220632e+00 2.34684234e+00 
244 1384.32 4.24023896e+00 2.00654000e+00 
243 1385.75 4.21528774e+00 1.71934902e+00 
242 1387.19 4.14666164e+00 1.33477202e+00 
241 1388.63 4.04783994e+00 1.13812769e+00 
240 1390.07 4.12742973e+00 1.17472804e+00 
239 1391.50 4.26721865e+00 1.30236063e+00 
238 1392.94 4.43636179e+00 1.76829010e+00 
237 1394.37 4.51291728e+00 1.75129116e+00 
236 1395.80 4.55038035e+00 1.61500233e+00 
235 1397.23 4.61328972e+00 1.74477771e+00 
234 1398.66 4.62579816e+00 1.62886809e+00 
233 1400.09 4.71765548e+00 1.53870235e+00 
232 1401.52 4.87201965e+00 1.82392019e+00 
231 1402.94 4.92298788e+00 1.65552528e+00 
230 1404.37 4.94180983e+00 1.59802223e+00 
229 1405.79 4.97769123e+00 1.69011821e+00 
228 1407.22 4.99480498e+00 1.63366388e+00 
227 1408.64 5.01023561e+00 1.46382336e+00 
226 1410.06 5.01163608e+00 1.32919713e+00 
225 1411.48 4.99755895e+00 1.29698353e+00 
224 1412.90 4.99443328e+00 1.16328324e+00 
223 1414.32 4.94818813e+00 1.04219171e+00 
222 1415.73 5.04986721e+00 1.16551113e+00 
221 1417.15 5.09995032e+00 1.12414619e+00 
220 1418.56 5.12608016e+00 1.05963348e+00 
219 1419.98 5.12511981e+00 1.09837184e+00 
218 1421.39 5.09428811e+00 9.77877097e-01 
217 1422.80 5.01300311e+00 8.09369844e-01 
216 1424.21 5.05565917e+00 7.95383910e-01 
215 1425.62 5.02693510e+00 7.82252150e-01 
214 1427.03 4.96725798e+00 6.93954631e-01 
213 1428.44 4.75798547e+00 6.70394390e-01 
212 1429.84 4.68401450e+00 7.41130414e-01 
211 1431.25 4.52006024e+00 6.43754388e-01 
210 1432.65 4.56158191e+00 6.95940981e-01 
209 1434.06 4.64098925e+00 7.11953342e-01 
208 1435.46 4.70124799e+00 6.85943957e-01 
207 1436.86 4.67987347e+00 6.80165528e-01 
206 1438.26 4.71025407e+00 6.36086666e-01 
205 1439.66 4.68142581e+00 6.16633236e-01 
204 1441.05 4.72966838e+00 5.45609986e-01 
203 1442.45 4.67620373e+00 5.48954049e-01 
202 1443.85 4.73081553e+00 5.53706434e-01 
201 1445.24 4.70014310e+00 4.79348504e-01 
200 1446.64 4.76182068e+00 4.95272272e-01 
199 1448.03 4.79775524e+00 5.26911426e-01 
198 1449.42 4.83122063e+00 4.89884343e-01 
197 1450.81 4.78987658e+00 4.57468017e-01 
196 1452.20 4.73221540e+00 4.02276579e-01 
195 1453.59 4.65875101e+00 2.62380162e-01 
194 1454.97 4.66234112e+00 2.14301268e-01 
193 1456.36 4.63764155e+00 1.88476141e-01 
192 1457.75 4.68215668e+00 2.20491136e-01 
191 1459.13 4.65187859e+00 2.19423182e-01 
190 1460.51 4.67824852e+00 2.71579916e-01 
189 1461.90 4.61969221e+00 3.08353575e-01 
188 1463.28 4.67506230e+00 3.66871522e-01 
187 1464.66 4.62583279e+00 3.75883944e-01 
186 1466.04 4.68913746e+00 3.80477031e-01 
185 1467.41 4.66982794e+00 4.49946265e-01 
184 1468.79 4.62582087e+00 4.60516253e-01 
183 1470.17 4.56765878e+00 4.35457968e-01 
182 1471.54 4.57431483e+00 4.21493588e-01 
181 1472.92 4.51407635e+00 3.73766463e-01 
180 1474.29 4.53496528e+00 3.20087815e-01 
179 1475.66 4.47656274e+00 2.82923159e-01 
178 1477.03 4.48041522e+00 3.06805068e-01 
177 1478.40 4.46792531e+00 3.41620330e-01 
176 1479.77 4.49121475e+00 3.28804671e-01 
175 1481.14 4.43551624e+00 2.64610139e-01 
174 1482.51 4.47865426e+00 2.55422659e-01 
173 1483.87 4.40259183e+00 2.20718720e-01 
172 1485.24 4.35552216e+00 1.93061923e-01 
171 1486.60 4.29068816e+00 1.67139655e-01 
170 1487.96 4.33072865e+00 1.61815378e-01 
169 1489.32 4.22849524e+00 1.18122439e-01 
168 1490.68 4.31914353e+00 1.16972296e-01 
167 1492.04 4.28080416e+00 8.48787727e-02 
166 1493.40 4.29490960e+00 8.83704434e-02 
165 1494.76 4.23919081e+00 8.06358567e-02 
164 1496.12 4.26490867e+00 7.40598831e-02 
163 1497.47 4.19865549e+00 3.50767389e-02 
162 1498.83 4.25870490e+00 3.00177983e-02 
161 1500.18 4.10477114e+00 2.15096631e-02 
160 1501.53 4.02959514e+00 4.77140983e-02 
159 1502.89 3.94218379e+00 2.86578526e-02 
158 1504.24 3.95295233e+00 4.82916390e-02 
157 1505.59 3.96142661e+00 4.79975471e-02 
156 1506.93 4.06580686e+00 2.91974198e-02 
155 1508.28 4.06335354e+00 3.28821779e-02 
154 1509.63 4.10418856e+00 3.70345541e-02 
153 1510.97 4.03786528e+00 2.48311876e-02 
152 1512.32 4.06535804e+00 5.17768813e-02 
151 1513.66 3.99305731e+00 2.22005237e-02 
150 1515.00 4.04001129e+00 2.79807495e-02 
149 1516.34 4.00684041e+00 4.76001440e-02 
148 1517.69 4.01737302e+00 2.89393766e-02 
147 1519.02 3.93682056e+00 3.46442685e-02 
146 1520.36 3.96123856e+00 5.63669707e-02 
145 1521.70 3.90590936e+00 5.36800815e-02 
144 1523.04 3.96740001e+00 3.38172437e-02 
143 1524.37 3.90618843e+00 4.81990545e-02 
142 1525.71 3.95073265e+00 3.69717463e-02 
141 1527.04 3.86444235e+00 4.33835158e-02 
140 1528.37 3.91272706e+00 4.65455735e-02 
139 1529.70 3.82741207e+00 3.99590101e-02 
138 1531.03 3.84451050e+00 5.80583025e-02 
137 1532.36 3.80302638e+00 5.55320126e-02 
136 1533.69 3.82258260e+00 8.05877033e-02 
135 1535.02 3.73715937e+00 7.14232696e-02 
134 1536.34 3.78182543e+00 5.84942928e-02 
133 1537.67 3.71515804e+00 6.62485937e-02 
132 1538.99 3.77172119e+00 4.26038761e-02 
131 1540.31 3.69525975e+00 7.33119957e-02 
130 1541.64 3.74566967e+00 4.76711017e-02 
129 1542.96 3.71327532e+00 4.80826583e-02 
128 1544.28 3.74825782e+00 3.89751614e-02 
127 1545.60 3.66305792e+00 4.89098208e-02 
126 1546.91 3.70791984e+00 4.27706909e-02 
125 1548.23 3.62579227e+00 5.50326159e-02 
124 1549.55 3.62539154e+00 5.68421021e-02 
123 1550.86 3.56477547e+00 4.64749855e-02 
122 1552.18 3.58255446e+00 4.44800727e-02 
121 1553.49 3.49644417e+00 5.86813180e-02 
120 1554.80 3.57441682e+00 3.68571583e-02 
119 1556.11 3.52252525e+00 3.84316583e-02 
118 1557.42 3.54899931e+00 3.29789882e-02 
117 1558.73 3.50603867e+00 3.90943949e-02 
116 1560.04 3.53038818e+00 2.48259005e-02 
115 1561.34 3.44244534e+00 3.02804117e-02 
114 1562.65 3.50360078e+00 2.08660445e-02 
113 1563.95 3.42604560e+00 3.63222654e-02 
112 1565.26 3.47225690e+00 3.35969083e-02 
111 1566.56 3.36455279e+00 3.28948724e-02 
110 1567.86 3.38505185e+00 1.50661581e-02 
109 1569.16 3.28142542e+00 1.77205569e-02 
108 1570.46 3.28586275e+00 3.55750140e-02 
107 1571.76 3.16405284e+00 2.00721798e-02 
106 1573.05 3.16787940e+00 4.39692841e-02 
105 1574.35 3.04952967e+00 3.29824943e-02 
104 1575.64 3.05362880e+00 1.66192416e-02 
103 1576.94 3.02258796e+00 2.23109987e-02 
102 1578.23 3.11116189e+00 3.68622283e-02 
101 1579.52 3.05779702e+00 2.45753243e-02 
100 1580.81 3.13605607e+00 1.08898094e-02 
99 1582.10 3.08867622e+00 2.96390209e-02 
98 1583.39 3.16240764e+00 3.22833688e-02 
97 1584.68 3.08382243e+00 3.81463834e-02 
96 1585.97 3.08899152e+00 5.49810380e-02 
95 1587.25 2.98389196e+00 3.59074701e-02 
94 1588.54 2.96783686e+00 3.10120446e-02 
93 1589.82 2.92186069e+00 3.75890242e-02 
92 1591.10 3.00981629e+00 2.51011943e-02 
91 1592.38 2.98030269e+00 4.98329141e-02 
90 1593.66 3.05033124e+00 2.94843334e-02 
89 1594.94 2.99943620e+00 4.59301052e-02 
88 1596.22 3.05711472e+00 5.87912180e-02 
87 1597.50 2.95285732e+00 4.49872997e-02 
86 1598.77 2.97616702e+00 4.92070174e-02 
85 1600.05 2.87367582e+00 5.03483198e-02 
84 1601.32 2.91605258e+00 4.90529119e-02 
83 1602.59 2.80957436e+00 4.53274678e-02 
82 1603.86 2.90065271e+00 4.73945092e-02 
81 1605.13 2.77206808e+00 4.30494876e-02 
80 1606.40 2.82702941e+00 3.96290218e-02 
79 1607.67 2.71460837e+00 2.69112043e-02 
78 1608.94 2.75965768e+00 3.42728529e-02 
77 1610.20 2.70386851e+00 2.93585240e-02 
76 1611.47 2.74006009e+00 1.29374567e-02 
75 1612.73 2.68054998e+00 2.40372248e-02 
74 1614.00 2.69931888e+00 2.60060141e-02 
73 1615.26 2.62205929e+00 3.46314373e-02 
72 1616.52 2.65294242e+00 4.33624317e-02 
71 1617.78 2.53182251e+00 6.16843483e-02 
70 1619.03 2.60081339e+00 6.98075275e-02 
69 1620.29 2.52317381e+00 4.95343965e-02 
68 1621.55 2.59759075e+00 3.12117548e-02 
67 1622.80 2.51260161e+00 3.06115984e-02 
66 1624.06 2.55116325e+00 4.04645336e-02 
65 1625.31 2.48838061e+00 3.38220258e-02 
64 1626.56 2.54693347e+00 3.56974351e-02 
63 1627.81 2.46511811e+00 2.14017678e-02 
62 1629.06 2.47188443e+00 1.64769009e-02 
