% C0 (TOA Count Rate, /ms) for 4STAR VIS spectrometer (1044 channels) derived from 4STAR_20160918starsun.mat and recorded on 2017-05-23 19:40:35.
% Using the MLO from September 2016 high altitude AOD for stratospheric AOD component, calculating the c0 from the AOD at low airmass. 
Pix Wavelength C0 C0err
0 173.18 0.00000000e+00 0.00000000e+00 
1 173.98 -1.00000000e+00 0.00000000e+00 
2 174.77 -1.00000000e+00 0.00000000e+00 
3 175.56 -1.00000000e+00 0.00000000e+00 
4 176.36 -1.00000000e+00 0.00000000e+00 
5 177.15 -1.00000000e+00 0.00000000e+00 
6 177.94 -1.00000000e+00 0.00000000e+00 
7 178.74 -1.00000000e+00 0.00000000e+00 
8 179.53 -1.00000000e+00 0.00000000e+00 
9 180.33 -1.00000000e+00 0.00000000e+00 
10 181.12 -1.00000000e+00 0.00000000e+00 
11 181.92 -1.00000000e+00 0.00000000e+00 
12 182.71 -1.00000000e+00 0.00000000e+00 
13 183.51 -1.00000000e+00 0.00000000e+00 
14 184.30 -1.00000000e+00 0.00000000e+00 
15 185.10 -1.00000000e+00 0.00000000e+00 
16 185.89 -1.00000000e+00 0.00000000e+00 
17 186.69 -1.00000000e+00 0.00000000e+00 
18 187.49 -1.00000000e+00 0.00000000e+00 
19 188.28 -1.00000000e+00 0.00000000e+00 
20 189.08 -1.00000000e+00 0.00000000e+00 
21 189.88 -1.00000000e+00 0.00000000e+00 
22 190.67 -1.00000000e+00 0.00000000e+00 
23 191.47 -1.00000000e+00 0.00000000e+00 
24 192.27 -1.00000000e+00 0.00000000e+00 
25 193.07 -1.00000000e+00 0.00000000e+00 
26 193.86 -1.00000000e+00 0.00000000e+00 
27 194.66 -1.00000000e+00 0.00000000e+00 
28 195.46 -1.00000000e+00 0.00000000e+00 
29 196.26 -1.00000000e+00 0.00000000e+00 
30 197.05 -1.00000000e+00 0.00000000e+00 
31 197.85 -1.00000000e+00 0.00000000e+00 
32 198.65 -1.00000000e+00 0.00000000e+00 
33 199.45 -1.00000000e+00 0.00000000e+00 
34 200.25 -1.00000000e+00 0.00000000e+00 
35 201.05 -1.00000000e+00 0.00000000e+00 
36 201.85 -1.00000000e+00 0.00000000e+00 
37 202.65 -1.00000000e+00 0.00000000e+00 
38 203.44 -1.00000000e+00 0.00000000e+00 
39 204.24 -1.00000000e+00 0.00000000e+00 
40 205.04 -1.00000000e+00 0.00000000e+00 
41 205.84 -1.00000000e+00 0.00000000e+00 
42 206.64 -1.00000000e+00 0.00000000e+00 
43 207.44 -1.00000000e+00 0.00000000e+00 
44 208.24 -1.00000000e+00 0.00000000e+00 
45 209.04 -1.00000000e+00 -1.00000000e+00 
46 209.84 -1.00000000e+00 -1.00000000e+00 
47 210.64 -1.00000000e+00 -1.00000000e+00 
48 211.44 -1.00000000e+00 -1.00000000e+00 
49 212.24 -1.00000000e+00 -1.00000000e+00 
50 213.04 1.36863838e+35 -1.00000000e+00 
51 213.85 1.74002128e+34 -1.00000000e+00 
52 214.65 2.25127845e+33 -1.00000000e+00 
53 215.45 2.86012042e+32 -1.00000000e+00 
54 216.25 3.67292627e+31 -1.00000000e+00 
55 217.05 4.68889616e+30 -1.00000000e+00 
56 217.85 6.04053877e+29 -1.00000000e+00 
57 218.65 7.84455814e+28 -1.00000000e+00 
58 219.46 1.00053511e+28 -1.00000000e+00 
59 220.26 1.31544750e+27 -1.00000000e+00 
60 221.06 1.66154251e+26 -1.00000000e+00 
61 221.86 2.16164965e+25 -1.00000000e+00 
62 222.66 2.78401519e+24 -1.00000000e+00 
63 223.47 3.61997573e+23 -1.00000000e+00 
64 224.27 4.75375162e+22 -1.00000000e+00 
65 225.07 6.15183490e+21 -1.00000000e+00 
66 225.87 8.03563700e+20 -1.00000000e+00 
67 226.68 1.07216405e+20 -1.00000000e+00 
68 227.48 1.46721646e+19 -1.00000000e+00 
69 228.28 2.31648876e+18 3.81473085e+17 
70 229.08 5.16794723e+17 8.32676648e+16 
71 229.89 2.12744505e+17 3.30145074e+16 
72 230.69 2.03034975e+17 3.23506794e+16 
73 231.49 4.89471344e+17 8.08274190e+16 
74 232.30 2.45107118e+18 4.00665473e+17 
75 233.10 1.93735158e+19 -1.00000000e+00 
76 233.90 1.87965102e+20 -1.00000000e+00 
77 234.71 1.93741126e+21 -1.00000000e+00 
78 235.51 2.08989135e+22 -1.00000000e+00 
79 236.32 2.28718189e+23 -1.00000000e+00 
80 237.12 2.54831825e+24 -1.00000000e+00 
81 237.92 2.88646811e+25 -1.00000000e+00 
82 238.73 3.31429035e+26 -1.00000000e+00 
83 239.53 3.78736950e+27 -1.00000000e+00 
84 240.34 4.12589948e+28 -1.00000000e+00 
85 241.14 4.30119977e+29 -1.00000000e+00 
86 241.94 4.11541681e+30 -1.00000000e+00 
87 242.75 3.65386949e+31 -1.00000000e+00 
88 243.55 2.97307529e+32 -1.00000000e+00 
89 244.36 2.21860117e+33 -1.00000000e+00 
90 245.16 1.53761041e+34 -1.00000000e+00 
91 245.97 9.39395349e+34 -1.00000000e+00 
92 246.77 4.91186680e+35 -1.00000000e+00 
93 247.58 -1.00000000e+00 -1.00000000e+00 
94 248.38 -1.00000000e+00 -1.00000000e+00 
95 249.19 -1.00000000e+00 -1.00000000e+00 
96 249.99 -1.00000000e+00 -1.00000000e+00 
97 250.80 -1.00000000e+00 -1.00000000e+00 
98 251.60 -1.00000000e+00 -1.00000000e+00 
99 252.41 -1.00000000e+00 -1.00000000e+00 
100 253.21 -1.00000000e+00 -1.00000000e+00 
101 254.02 -1.00000000e+00 -1.00000000e+00 
102 254.82 -1.00000000e+00 -1.00000000e+00 
103 255.63 -1.00000000e+00 -1.00000000e+00 
104 256.44 -1.00000000e+00 -1.00000000e+00 
105 257.24 -1.00000000e+00 -1.00000000e+00 
106 258.05 -1.00000000e+00 -1.00000000e+00 
107 258.85 -1.00000000e+00 -1.00000000e+00 
108 259.66 -1.00000000e+00 -1.00000000e+00 
109 260.46 -1.00000000e+00 -1.00000000e+00 
110 261.27 -1.00000000e+00 -1.00000000e+00 
111 262.08 -1.00000000e+00 -1.00000000e+00 
112 262.88 2.31797776e+35 -1.00000000e+00 
113 263.69 3.72874373e+34 -1.00000000e+00 
114 264.49 6.33799241e+33 -1.00000000e+00 
115 265.30 8.83490881e+32 -1.00000000e+00 
116 266.11 1.03683736e+32 -1.00000000e+00 
117 266.91 1.01449295e+31 -1.00000000e+00 
118 267.72 8.58213417e+29 -1.00000000e+00 
119 268.53 6.45839671e+28 -1.00000000e+00 
120 269.33 5.18393590e+27 -1.00000000e+00 
121 270.14 4.90399017e+26 -1.00000000e+00 
122 270.95 4.27398655e+25 -1.00000000e+00 
123 271.75 3.41582021e+24 -1.00000000e+00 
124 272.56 2.50419703e+23 -1.00000000e+00 
125 273.37 1.58315961e+22 -1.00000000e+00 
126 274.17 1.01849567e+21 -1.00000000e+00 
127 274.98 7.67924605e+19 -1.00000000e+00 
128 275.79 6.35519865e+18 -1.00000000e+00 
129 276.59 5.90519452e+17 9.20917095e+16 
130 277.40 5.65374505e+16 8.73535037e+15 
131 278.21 5.19237709e+15 8.09842592e+14 
132 279.01 5.09978780e+14 7.56852762e+13 
133 279.82 5.49390406e+13 8.04774321e+12 
134 280.63 5.59566868e+12 8.13226787e+11 
135 281.43 6.06200005e+11 9.00099113e+10 
136 282.24 8.10870374e+10 1.16461404e+10 
137 283.05 1.28135721e+10 1.78992499e+09 
138 283.86 2.19145779e+09 3.06303840e+08 
139 284.66 3.79981664e+08 5.18930040e+07 
140 285.47 7.46452880e+07 9.88230300e+06 
141 286.28 1.76800440e+07 2.36703800e+06 
142 287.09 4.35162800e+06 6.08956625e+05 
143 287.89 1.11709388e+06 1.48279781e+05 
144 288.70 3.10594313e+05 4.05008750e+04 
145 289.51 1.01723422e+05 1.32761982e+04 
146 290.32 3.60720938e+04 4.75339307e+03 
147 291.12 1.35122275e+04 1.74991260e+03 
148 291.93 5.27500830e+03 6.79524353e+02 
149 292.74 2.29830493e+03 2.93911011e+02 
150 293.55 1.05834973e+03 1.36203110e+02 
151 294.35 5.22940674e+02 6.68553696e+01 
152 295.16 2.73164581e+02 3.57001076e+01 
153 295.97 1.52388046e+02 1.91680622e+01 
154 296.78 8.84479065e+01 1.12660418e+01 
155 297.58 5.34182358e+01 6.88536596e+00 
156 298.39 3.40660095e+01 4.38121414e+00 
157 299.20 2.32575569e+01 2.97682071e+00 
158 300.01 1.64885139e+01 2.08656287e+00 
159 300.81 1.20288887e+01 1.51796627e+00 
160 301.62 8.96923447e+00 1.15761280e+00 
161 302.43 6.87246466e+00 8.78953993e-01 
162 303.24 5.49284506e+00 7.06054151e-01 
163 304.04 4.61207533e+00 5.76153815e-01 
164 304.85 3.73848987e+00 4.85995471e-01 
165 305.66 3.22809100e+00 4.14407432e-01 
166 306.47 2.71731830e+00 3.48624319e-01 
167 307.28 2.40138125e+00 3.08927268e-01 
168 308.08 2.19736218e+00 2.80637294e-01 
169 308.89 1.97335339e+00 2.52285868e-01 
170 309.70 1.77616704e+00 2.25203589e-01 
171 310.51 1.64541447e+00 2.12335438e-01 
172 311.32 1.55471027e+00 1.95264757e-01 
173 312.12 1.40555608e+00 1.81144521e-01 
174 312.93 1.34413624e+00 1.70815095e-01 
175 313.74 1.27770936e+00 1.62210569e-01 
176 314.55 1.20734465e+00 1.56668767e-01 
177 315.36 1.17147827e+00 1.50691569e-01 
178 316.16 1.15852726e+00 1.44127578e-01 
179 316.97 1.12228835e+00 1.43420056e-01 
180 317.78 1.10871589e+00 1.36967540e-01 
181 318.59 1.07868445e+00 1.36975601e-01 
182 319.40 1.08184516e+00 1.35795921e-01 
183 320.20 1.06827939e+00 1.33648381e-01 
184 321.01 1.06274641e+00 1.33680612e-01 
185 321.82 1.05606806e+00 1.33984700e-01 
186 322.63 1.07160091e+00 1.36550009e-01 
187 323.43 1.07466757e+00 1.36393100e-01 
188 324.24 1.06616402e+00 1.37085304e-01 
189 325.05 1.09953189e+00 1.36099592e-01 
190 325.86 1.11376917e+00 1.38489544e-01 
191 326.67 1.12786341e+00 1.40461043e-01 
192 327.48 1.14856589e+00 1.42253086e-01 
193 328.28 1.16986394e+00 1.45506367e-01 
194 329.09 1.19791698e+00 1.50319636e-01 
195 329.90 1.23445952e+00 1.54310271e-01 
196 330.71 1.27915645e+00 1.60340130e-01 
197 331.52 1.36069429e+00 1.68619588e-01 
198 332.32 1.51504862e+00 1.86244473e-01 
199 333.13 1.75093400e+00 2.17792183e-01 
200 333.94 2.20217752e+00 2.72642940e-01 
201 334.75 2.95301199e+00 3.60343039e-01 
202 335.55 3.94671178e+00 4.84803796e-01 
203 336.36 5.35946989e+00 6.58096552e-01 
204 337.17 7.56715488e+00 9.29923773e-01 
205 337.98 1.06490793e+01 1.30821836e+00 
206 338.79 1.43160172e+01 1.75587559e+00 
207 339.60 1.84513283e+01 2.26102042e+00 
208 340.40 2.21943398e+01 2.71863294e+00 
209 341.21 2.53323555e+01 3.10453892e+00 
210 342.02 2.90115204e+01 3.55756187e+00 
211 342.83 3.23496094e+01 3.96590233e+00 
212 343.63 3.32954369e+01 4.07963276e+00 
213 344.44 3.44284401e+01 4.21967649e+00 
214 345.25 3.81820984e+01 4.67936420e+00 
215 346.06 4.18600845e+01 5.13115358e+00 
216 346.87 4.42581215e+01 5.42438459e+00 
217 347.67 4.59295731e+01 5.63097382e+00 
218 348.48 4.74913902e+01 5.82124901e+00 
219 349.29 5.02292633e+01 6.15801001e+00 
220 350.10 5.50838852e+01 6.75326872e+00 
221 350.90 5.85472260e+01 7.17301416e+00 
222 351.71 5.87003822e+01 7.19407511e+00 
223 352.52 5.95943489e+01 7.30522728e+00 
224 353.33 6.46663284e+01 7.92353630e+00 
225 354.14 7.12521667e+01 8.73375893e+00 
226 354.94 7.42594528e+01 9.10202599e+00 
227 355.75 7.30165634e+01 8.94856739e+00 
228 356.56 6.87322540e+01 8.42329407e+00 
229 357.37 6.44712524e+01 7.89969110e+00 
230 358.18 6.33212242e+01 7.76041746e+00 
231 358.98 7.06860275e+01 8.66438866e+00 
232 359.79 8.17493896e+01 1.00181351e+01 
233 360.60 8.34287109e+01 1.02236338e+01 
234 361.41 8.18678131e+01 1.00337906e+01 
235 362.21 8.61951828e+01 1.05631990e+01 
236 363.02 9.13261032e+01 1.11911068e+01 
237 363.83 9.43684464e+01 1.15656176e+01 
238 364.64 9.88052521e+01 1.21092062e+01 
239 365.44 1.07734741e+02 1.32029676e+01 
240 366.25 1.15829521e+02 1.41948881e+01 
241 367.06 1.16945915e+02 1.43348913e+01 
242 367.87 1.15087593e+02 1.41037788e+01 
243 368.67 1.16503792e+02 1.42797737e+01 
244 369.48 1.21867729e+02 1.49362221e+01 
245 370.29 1.23245407e+02 1.51029339e+01 
246 371.10 1.22022842e+02 1.49561300e+01 
247 371.90 1.19248245e+02 1.46164188e+01 
248 372.71 1.12773773e+02 1.38204985e+01 
249 373.52 1.06558838e+02 1.30608625e+01 
250 374.33 1.05726707e+02 1.29572973e+01 
251 375.13 1.13235710e+02 1.38779202e+01 
252 375.94 1.23660385e+02 1.51571846e+01 
253 376.75 1.34606689e+02 1.64970551e+01 
254 377.56 1.47946014e+02 1.81313305e+01 
255 378.36 1.52193817e+02 1.86530972e+01 
256 379.17 1.44313919e+02 1.76857224e+01 
257 379.98 1.40950882e+02 1.72753124e+01 
258 380.78 1.41531830e+02 1.73457108e+01 
259 381.59 1.29625824e+02 1.58868027e+01 
260 382.40 1.10140785e+02 1.34972467e+01 
261 383.20 1.00545067e+02 1.23223753e+01 
262 384.01 1.08962936e+02 1.33535471e+01 
263 384.82 1.23944115e+02 1.51913853e+01 
264 385.63 1.30002365e+02 1.59329138e+01 
265 386.43 1.30918655e+02 1.60445385e+01 
266 387.24 1.31817383e+02 1.61549129e+01 
267 388.05 1.33409027e+02 1.63489857e+01 
268 388.85 1.41108932e+02 1.72961540e+01 
269 389.66 1.54257782e+02 1.89070053e+01 
270 390.47 1.64818680e+02 2.01988773e+01 
271 391.27 1.66151871e+02 2.03627281e+01 
272 392.08 1.48772278e+02 1.82330399e+01 
273 392.89 1.19395706e+02 1.46323061e+01 
274 393.69 1.10934303e+02 1.35934372e+01 
275 394.50 1.33124802e+02 1.63147545e+01 
276 395.31 1.50518356e+02 1.84471951e+01 
277 396.11 1.39819931e+02 1.71376190e+01 
278 396.92 1.29771454e+02 1.59023066e+01 
279 397.73 1.52824951e+02 1.87278137e+01 
280 398.53 1.89671173e+02 2.32452469e+01 
281 399.34 2.12418335e+02 2.60323009e+01 
282 400.15 2.22907700e+02 2.73190804e+01 
283 400.95 2.30105576e+02 2.81989536e+01 
284 401.76 2.36104340e+02 2.89349747e+01 
285 402.57 2.37499680e+02 2.91063404e+01 
286 403.37 2.35505356e+02 2.88601933e+01 
287 404.18 2.33869690e+02 2.86643066e+01 
288 404.99 2.32425140e+02 2.84838428e+01 
289 405.79 2.30811996e+02 2.82870960e+01 
290 406.60 2.30904449e+02 2.82973309e+01 
291 407.40 2.36149017e+02 2.89427795e+01 
292 408.21 2.45122177e+02 3.00405083e+01 
293 409.02 2.48866730e+02 3.04993858e+01 
294 409.82 2.44869385e+02 3.00086117e+01 
295 410.63 2.46670486e+02 3.02257538e+01 
296 411.43 2.57536377e+02 3.15592537e+01 
297 412.24 2.64480072e+02 3.24136848e+01 
298 413.05 2.64597992e+02 3.24259796e+01 
299 413.85 2.64092865e+02 3.23654251e+01 
300 414.66 2.64083618e+02 3.23631363e+01 
301 415.46 2.64663605e+02 3.24360886e+01 
302 416.27 2.64812012e+02 3.24514656e+01 
303 417.08 2.61103363e+02 3.19983959e+01 
304 417.88 2.55943939e+02 3.13673325e+01 
305 418.69 2.53792191e+02 3.11009789e+01 
306 419.49 2.54131363e+02 3.11439095e+01 
307 420.30 2.57320526e+02 3.15342712e+01 
308 421.11 2.60969147e+02 3.19806957e+01 
309 421.91 2.59223938e+02 3.17683697e+01 
310 422.72 2.54661606e+02 3.12089367e+01 
311 423.52 2.54936691e+02 3.12422962e+01 
312 424.33 2.58590729e+02 3.16896133e+01 
313 425.13 2.60928650e+02 3.19766159e+01 
314 425.94 2.61733276e+02 3.20742912e+01 
315 426.74 2.61976074e+02 3.21032257e+01 
316 427.55 2.62283142e+02 3.21424408e+01 
317 428.36 2.60503723e+02 3.19220829e+01 
318 429.16 2.51385635e+02 3.08066273e+01 
319 429.96 2.40104431e+02 2.94238033e+01 
320 430.77 2.46145065e+02 3.01636314e+01 
321 431.58 2.74455017e+02 3.36347923e+01 
322 432.38 3.04052856e+02 3.72595863e+01 
323 433.19 3.18247284e+02 3.89988136e+01 
324 433.99 3.25583710e+02 3.98988533e+01 
325 434.80 3.39580017e+02 4.16136742e+01 
326 435.60 3.59876343e+02 4.41034393e+01 
327 436.41 3.74572296e+02 4.59003220e+01 
328 437.21 3.76004517e+02 4.60771027e+01 
329 438.02 3.71174957e+02 4.54876823e+01 
330 438.82 3.73528992e+02 4.57733955e+01 
331 439.63 3.85860870e+02 4.72843056e+01 
332 440.43 4.02980377e+02 4.93824005e+01 
333 441.24 4.20978271e+02 5.15883751e+01 
334 442.04 4.37621735e+02 5.36280251e+01 
335 442.85 4.49064667e+02 5.50295639e+01 
336 443.65 4.55919800e+02 5.58683090e+01 
337 444.45 4.59101257e+02 5.62593498e+01 
338 445.26 4.58720032e+02 5.62126999e+01 
339 446.06 4.61862610e+02 5.65991554e+01 
340 446.87 4.73203033e+02 5.79874382e+01 
341 447.67 4.87757721e+02 5.97714119e+01 
342 448.48 4.98370758e+02 6.10705643e+01 
343 449.28 5.08101196e+02 6.22635269e+01 
344 450.09 5.19581970e+02 6.36706276e+01 
345 450.89 5.26717712e+02 6.45442276e+01 
346 451.70 5.22292603e+02 6.40024872e+01 
347 452.50 5.11335297e+02 6.26581917e+01 
348 453.30 5.05759766e+02 6.19762077e+01 
349 454.11 5.08864746e+02 6.23548050e+01 
350 454.91 5.16855896e+02 6.33340187e+01 
351 455.72 5.25513855e+02 6.43980026e+01 
352 456.52 5.33019775e+02 6.53175049e+01 
353 457.32 5.36055847e+02 6.56890411e+01 
354 458.13 5.34264099e+02 6.54695587e+01 
355 458.93 5.32570679e+02 6.52609634e+01 
356 459.74 5.35346497e+02 6.56002350e+01 
357 460.54 5.42369202e+02 6.64603958e+01 
358 461.34 5.50389587e+02 6.74433441e+01 
359 462.15 5.55689026e+02 6.80941772e+01 
360 462.95 5.55759033e+02 6.81002579e+01 
361 463.76 5.51689636e+02 6.76025009e+01 
362 464.56 5.47319092e+02 6.70659256e+01 
363 465.36 5.44735657e+02 6.67499695e+01 
364 466.17 5.43452332e+02 6.65929413e+01 
365 466.97 5.43688416e+02 6.66195831e+01 
366 467.77 5.46255493e+02 6.69354706e+01 
367 468.58 5.49565063e+02 6.73394394e+01 
368 469.38 5.49930115e+02 6.73862839e+01 
369 470.18 5.49804688e+02 6.73708115e+01 
370 470.99 5.54949890e+02 6.80018158e+01 
371 471.79 5.64066711e+02 6.91170502e+01 
372 472.59 5.71553467e+02 7.00347977e+01 
373 473.40 5.76379089e+02 7.06273041e+01 
374 474.20 5.80060242e+02 7.10781097e+01 
375 475.00 5.82624695e+02 7.13912506e+01 
376 475.81 5.83955444e+02 7.15535812e+01 
377 476.61 5.87111023e+02 7.19431686e+01 
378 477.41 5.93507507e+02 7.27268066e+01 
379 478.21 5.99574280e+02 7.34683228e+01 
380 479.02 6.03448059e+02 7.39418106e+01 
381 479.82 6.05838806e+02 7.42349548e+01 
382 480.62 6.08859497e+02 7.46039276e+01 
383 481.43 6.10788269e+02 7.48412247e+01 
384 482.23 6.10346619e+02 7.47884598e+01 
385 483.03 6.06394714e+02 7.43032074e+01 
386 483.84 5.97513855e+02 7.32130508e+01 
387 484.64 5.79432434e+02 7.10000381e+01 
388 485.44 5.55348999e+02 6.80466919e+01 
389 486.24 5.40283813e+02 6.61988068e+01 
390 487.04 5.43532959e+02 6.65982361e+01 
391 487.85 5.60428589e+02 6.86684341e+01 
392 488.65 5.79433167e+02 7.09997177e+01 
393 489.45 5.92980530e+02 7.26577225e+01 
394 490.26 5.98595459e+02 7.33456879e+01 
395 491.06 5.96814209e+02 7.31293259e+01 
396 491.86 5.92544250e+02 7.26039734e+01 
397 492.66 5.92831299e+02 7.26424866e+01 
398 493.46 5.99522827e+02 7.34623871e+01 
399 494.27 6.07248779e+02 7.44063110e+01 
400 495.07 6.11538025e+02 7.49313583e+01 
401 495.87 6.13319946e+02 7.51491165e+01 
402 496.67 6.11468506e+02 7.49246140e+01 
403 497.48 6.07264465e+02 7.44089203e+01 
404 498.28 6.02685181e+02 7.38488922e+01 
405 499.08 5.97794739e+02 7.32474365e+01 
406 499.88 5.92311035e+02 7.25765686e+01 
407 500.68 5.86912354e+02 7.19137039e+01 
408 501.48 5.84303833e+02 7.15932922e+01 
409 502.29 5.86985779e+02 7.19228287e+01 
410 503.09 5.91825684e+02 7.25165558e+01 
411 503.89 5.97225281e+02 7.31790848e+01 
412 504.69 6.03800659e+02 7.39821701e+01 
413 505.49 6.09702759e+02 7.47074585e+01 
414 506.29 6.11335693e+02 7.49059525e+01 
415 507.09 6.08168213e+02 7.45166016e+01 
416 507.90 6.04504578e+02 7.40691757e+01 
417 508.70 6.03751282e+02 7.39777603e+01 
418 509.50 6.04770203e+02 7.41011887e+01 
419 510.30 6.06139343e+02 7.42695541e+01 
420 511.10 6.05743469e+02 7.42215805e+01 
421 511.90 6.02451599e+02 7.38194885e+01 
422 512.71 5.95923767e+02 7.30179520e+01 
423 513.51 5.88579651e+02 7.21181259e+01 
424 514.31 5.83077698e+02 7.14448700e+01 
425 515.11 5.75243713e+02 7.04825745e+01 
426 515.91 5.60398376e+02 6.86659622e+01 
427 516.71 5.43731934e+02 6.66219559e+01 
428 517.51 5.34146606e+02 6.54465485e+01 
429 518.31 5.37549866e+02 6.58639908e+01 
430 519.11 5.50938843e+02 6.75053253e+01 
431 519.91 5.64810181e+02 6.92061081e+01 
432 520.71 5.75165405e+02 7.04727020e+01 
433 521.52 5.79451660e+02 7.09984665e+01 
434 522.32 5.81329102e+02 7.12288361e+01 
435 523.12 5.85127808e+02 7.16936874e+01 
436 523.92 5.89869019e+02 7.22774200e+01 
437 524.72 5.90601074e+02 7.23627319e+01 
438 525.52 5.82266357e+02 7.13460159e+01 
439 526.32 5.70421509e+02 6.98890915e+01 
440 527.12 5.67045593e+02 6.94780121e+01 
441 527.92 5.75016663e+02 7.04563675e+01 
442 528.72 5.88634888e+02 7.21278458e+01 
443 529.52 5.99808533e+02 7.34950256e+01 
444 530.32 6.04718079e+02 7.40950470e+01 
445 531.12 6.02752747e+02 7.38560181e+01 
446 531.92 5.96411987e+02 7.30758667e+01 
447 532.72 5.90011719e+02 7.22934036e+01 
448 533.52 5.88783752e+02 7.21435471e+01 
449 534.32 5.93430237e+02 7.27112427e+01 
450 535.12 5.98692261e+02 7.33564682e+01 
451 535.92 5.99506958e+02 7.34572067e+01 
452 536.72 5.97249268e+02 7.31774979e+01 
453 537.52 5.94045715e+02 7.27882538e+01 
454 538.32 5.90131836e+02 7.23072586e+01 
455 539.12 5.84636902e+02 7.16327362e+01 
456 539.92 5.79060486e+02 7.09508591e+01 
457 540.72 5.76838806e+02 7.06801758e+01 
458 541.52 5.78723694e+02 7.09107361e+01 
459 542.32 5.83107544e+02 7.14474335e+01 
460 543.12 5.87267761e+02 7.19580231e+01 
461 543.92 5.90356934e+02 7.23366165e+01 
462 544.72 5.92361694e+02 7.25821762e+01 
463 545.52 5.92215881e+02 7.25625076e+01 
464 546.32 5.89513367e+02 7.22306595e+01 
465 547.12 5.85969666e+02 7.17986221e+01 
466 547.91 5.83735901e+02 7.15235672e+01 
467 548.71 5.83400879e+02 7.14834824e+01 
