% C0 (TOA Count Rate, /ms) for 4STAR VIS spectrometer (1044 channels) derived from 20160118starsun.mat and recorded on 2016-01-18 14:10:05.
% Data outside 2.0x the STD of 501 nm Langley residuals were screened out.
Pix Wavelength C0 C0err
0 173.18 -1.00000000e+00 -1.00000000e+00 
1 173.97 3.59415499e+21 1.07824650e+20 
2 174.77 1.35219765e+30 4.05659295e+28 
3 175.56 1.59812748e+29 4.79438245e+27 
4 176.36 2.42195512e+29 7.26586535e+27 
5 177.15 5.27245214e+29 1.58173564e+28 
6 177.94 1.90859985e+30 5.72579955e+28 
7 178.74 5.55439250e+30 1.66631775e+29 
8 179.53 9.13631385e+30 2.74089416e+29 
9 180.33 1.74303437e+31 5.22910311e+29 
10 181.12 2.01356629e+31 6.04069886e+29 
11 181.92 3.85719937e+31 1.15715981e+30 
12 182.71 4.90532128e+31 1.47159638e+30 
13 183.51 7.85656070e+31 2.35696821e+30 
14 184.30 1.42792362e+32 4.28377086e+30 
15 185.10 2.00263027e+32 6.00789080e+30 
16 185.89 3.75804711e+32 1.12741413e+31 
17 186.69 6.54197941e+32 1.96259382e+31 
18 187.49 9.63968170e+32 2.89190451e+31 
19 188.28 1.83171905e+33 5.49515715e+31 
20 189.08 3.53732411e+33 1.06119723e+32 
21 189.88 6.35664727e+33 1.90699418e+32 
22 190.67 1.16175074e+34 3.48525222e+32 
23 191.47 2.73057579e+34 8.19172736e+32 
24 192.27 5.31524896e+34 1.59457469e+33 
25 193.07 1.30881976e+35 3.92645928e+33 
26 193.86 3.09514267e+35 9.28542801e+33 
27 194.66 9.10950147e+35 2.73285044e+34 
28 195.46 1.57803600e+36 4.73410799e+34 
29 196.26 2.38894709e+36 7.16684126e+34 
30 197.05 5.35511436e+36 1.60653431e+35 
31 197.85 1.57632114e+37 4.72896343e+35 
32 198.65 3.76741744e+37 1.13022523e+36 
33 199.45 7.46168200e+37 2.23850460e+36 
34 200.25 2.27268738e+38 6.81806214e+36 
35 201.05 5.88774010e+38 1.76632203e+37 
36 201.85 1.43776160e+39 4.31328480e+37 
37 202.64 3.71239792e+39 1.11371938e+38 
38 203.44 1.90254739e+39 5.70764217e+37 
39 204.24 2.84993737e+39 8.54981212e+37 
40 205.04 2.49450933e+40 7.48352800e+38 
41 205.84 2.75965234e+41 8.27895701e+39 
42 206.64 2.14775723e+42 6.44327169e+40 
43 207.44 1.73209985e+42 5.19629954e+40 
44 208.24 1.98368402e+41 5.95105205e+39 
45 209.04 2.42830108e+40 7.28490325e+38 
46 209.84 3.02306340e+39 9.06919019e+37 
47 210.64 3.59334958e+38 1.07800488e+37 
48 211.44 4.23928755e+37 1.27178626e+36 
49 212.24 5.17389293e+36 1.55216788e+35 
50 213.05 6.43609923e+35 1.93082977e+34 
51 213.85 7.67813133e+34 2.30343940e+33 
52 214.65 9.62158758e+33 2.88647627e+32 
53 215.45 1.11591164e+33 3.34773491e+31 
54 216.25 1.40957609e+32 4.22872827e+30 
55 217.05 1.73489214e+31 5.20467643e+29 
56 217.85 2.08089648e+30 6.24268944e+28 
57 218.65 2.55283526e+29 7.65850579e+27 
58 219.46 3.21035117e+28 9.63105350e+26 
59 220.26 3.82304457e+27 1.14691337e+26 
60 221.06 4.75052338e+26 1.42515701e+25 
61 221.86 5.71035702e+25 1.71310711e+24 
62 222.66 7.16030804e+24 2.14809241e+23 
63 223.47 8.52702223e+23 2.55810667e+22 
64 224.27 1.05019675e+23 3.15059026e+21 
65 225.07 1.32314768e+22 3.96944304e+20 
66 225.87 1.59886794e+21 4.79660381e+19 
67 226.68 2.03283965e+20 6.09851896e+18 
68 227.48 2.63225844e+19 7.89677533e+17 
69 228.28 3.78045937e+18 1.13413781e+17 
70 229.09 8.15898330e+17 2.44769499e+16 
71 229.89 3.41475503e+17 1.02442651e+16 
72 230.69 3.29071022e+17 9.87213067e+15 
73 231.49 8.15901493e+17 2.44770448e+16 
74 232.30 4.36665211e+18 1.30999563e+17 
75 233.10 3.98729810e+19 1.19618943e+18 
76 233.91 4.18350228e+20 1.25505068e+19 
77 234.71 4.96329639e+21 1.48898892e+20 
78 235.51 5.72310347e+22 1.71693104e+21 
79 236.32 6.81676124e+23 2.04502837e+22 
80 237.12 8.90147340e+24 2.67044202e+23 
81 237.92 1.08534728e+26 3.25604185e+24 
82 238.73 1.37492346e+27 4.12477037e+25 
83 239.53 1.82879089e+28 5.48637267e+26 
84 240.34 2.28951054e+29 6.86853162e+27 
85 241.14 2.53726409e+30 7.61179226e+28 
86 241.94 2.67842572e+31 8.03527717e+29 
87 242.75 2.68296380e+32 8.04889141e+30 
88 243.55 2.33236883e+33 6.99710650e+31 
89 244.36 1.90600742e+34 5.71802225e+32 
90 245.16 1.42928563e+35 4.28785689e+33 
91 245.97 9.13883929e+35 2.74165179e+34 
92 246.77 5.40218314e+36 1.62065494e+35 
93 247.58 2.55022668e+37 7.65068005e+35 
94 248.38 1.24310343e+38 3.72931029e+36 
95 249.19 5.10690309e+38 1.53207093e+37 
96 249.99 1.56197670e+39 4.68593010e+37 
97 250.80 3.68523256e+39 1.10556977e+38 
98 251.60 7.79872553e+39 2.33961766e+38 
99 252.41 1.55613949e+40 4.66841848e+38 
100 253.21 2.58961433e+40 7.76884299e+38 
101 254.02 3.63616634e+40 1.09084990e+39 
102 254.83 4.47509040e+40 1.34252712e+39 
103 255.63 4.47139129e+40 1.34141739e+39 
104 256.44 2.84363883e+40 8.53091648e+38 
105 257.24 1.54299976e+40 4.62899928e+38 
106 258.05 1.00348018e+40 3.01044053e+38 
107 258.85 4.47944997e+39 1.34383499e+38 
108 259.66 1.45618681e+39 4.36856043e+37 
109 260.46 3.57211450e+38 1.07163435e+37 
110 261.27 8.88775901e+37 2.66632770e+36 
111 262.08 1.75348488e+37 5.26045464e+35 
112 262.88 2.83667394e+36 8.51002183e+34 
113 263.69 4.39208262e+35 1.31762479e+34 
114 264.50 6.48500829e+34 1.94550249e+33 
115 265.30 9.39307961e+33 2.81792388e+32 
116 266.11 9.16269881e+32 2.74880964e+31 
117 266.91 8.49865735e+31 2.54959721e+30 
118 267.72 6.74228603e+30 2.02268581e+29 
119 268.53 4.35250845e+29 1.30575254e+28 
120 269.33 3.49142926e+28 1.04742878e+27 
121 270.14 2.80443364e+27 8.41330091e+25 
122 270.95 2.37971607e+26 7.13914820e+24 
123 271.75 1.63510778e+25 4.90532335e+23 
124 272.56 1.16262612e+24 3.48787836e+22 
125 273.37 6.30059608e+22 1.89017882e+21 
126 274.17 3.82118584e+21 1.14635575e+20 
127 274.98 2.62163656e+20 7.86490968e+18 
128 275.79 2.05722232e+19 6.17166695e+17 
129 276.59 1.75964064e+18 5.27892192e+16 
130 277.40 1.45890738e+17 4.37672213e+15 
131 278.21 1.31956619e+16 3.95869856e+14 
132 279.01 1.12726496e+15 3.38179487e+13 
133 279.82 1.14182702e+14 3.42548106e+12 
134 280.63 1.02702012e+13 3.08106036e+11 
135 281.44 1.03181715e+12 3.09545145e+10 
136 282.24 1.29210774e+11 3.87632323e+09 
137 283.05 1.99582148e+10 5.98746445e+08 
138 283.86 3.14259904e+09 9.42779713e+07 
139 284.66 4.91695238e+08 1.47508571e+07 
140 285.47 1.00403413e+08 3.01210238e+06 
141 286.28 2.28881483e+07 6.86644448e+05 
142 287.09 4.92390039e+06 1.47717012e+05 
143 287.89 1.24639002e+06 3.73917006e+04 
144 288.70 3.52173677e+05 1.05652103e+04 
145 289.51 1.07638032e+05 3.22914095e+03 
146 290.32 3.54982123e+04 1.06494637e+03 
147 291.12 1.25998893e+04 3.77996680e+02 
148 291.93 4.89506422e+03 1.46851926e+02 
149 292.74 1.87178730e+03 5.61536189e+01 
150 293.55 8.72450140e+02 2.61735042e+01 
151 294.35 4.29846080e+02 1.28953824e+01 
152 295.16 2.22708001e+02 6.68124004e+00 
153 295.97 1.21371713e+02 3.64115138e+00 
154 296.78 6.50824637e+01 1.95247391e+00 
155 297.58 4.13132055e+01 1.23939617e+00 
156 298.39 2.64784568e+01 7.94353705e-01 
157 299.20 1.89242166e+01 5.67726498e-01 
158 300.01 1.20829258e+01 3.62487774e-01 
159 300.81 9.05199527e+00 2.71559858e-01 
160 301.62 6.29836671e+00 1.88951001e-01 
161 302.43 5.09948109e+00 1.52984433e-01 
162 303.24 4.14367578e+00 1.24310273e-01 
163 304.05 3.48539217e+00 1.04561765e-01 
164 304.85 2.79743961e+00 8.39231884e-02 
165 305.66 2.25212922e+00 6.75638766e-02 
166 306.47 2.19312660e+00 6.57937981e-02 
167 307.28 1.69882594e+00 5.09647783e-02 
168 308.08 1.56147095e+00 4.68441284e-02 
169 308.89 1.39802933e+00 4.19408799e-02 
170 309.70 1.27611032e+00 3.82833097e-02 
171 310.51 1.15529095e+00 3.46587285e-02 
172 311.32 1.05068839e+00 3.15206517e-02 
173 312.12 9.32200581e-01 2.79660174e-02 
174 312.93 9.06373103e-01 2.71911931e-02 
175 313.74 8.59540300e-01 2.57862090e-02 
176 314.55 8.12621174e-01 2.43786352e-02 
177 315.36 7.72622729e-01 2.31786819e-02 
178 316.16 7.17583044e-01 2.15274913e-02 
179 316.97 7.38065756e-01 2.21419727e-02 
180 317.78 7.42849674e-01 2.22854902e-02 
181 318.59 7.64141582e-01 2.29242475e-02 
182 319.39 6.80624583e-01 2.04187375e-02 
183 320.20 6.96058684e-01 2.08817605e-02 
184 321.01 7.09184177e-01 2.12755253e-02 
185 321.82 7.03451188e-01 2.11035356e-02 
186 322.63 7.13171521e-01 2.13951456e-02 
187 323.43 6.48860687e-01 1.94658206e-02 
188 324.24 7.04404808e-01 2.11321443e-02 
189 325.05 6.73386379e-01 2.02015914e-02 
190 325.86 7.03424341e-01 2.11027302e-02 
191 326.67 7.03053490e-01 2.10916047e-02 
192 327.48 7.04591278e-01 2.11377383e-02 
193 328.28 7.42704370e-01 2.22811311e-02 
194 329.09 7.15841386e-01 2.14752416e-02 
195 329.90 7.62350335e-01 2.28705101e-02 
196 330.71 7.45790518e-01 2.23737155e-02 
197 331.51 8.04728175e-01 2.41418453e-02 
198 332.32 8.11935326e-01 2.43580598e-02 
199 333.13 8.75566205e-01 2.62669862e-02 
200 333.94 1.00382503e+00 3.01147509e-02 
201 334.75 1.27197929e+00 3.81593787e-02 
202 335.56 1.77694323e+00 5.33082970e-02 
203 336.36 2.44894912e+00 7.34684735e-02 
204 337.17 3.63216228e+00 1.08964868e-01 
205 337.98 5.63676397e+00 1.69102919e-01 
206 338.79 8.36825398e+00 2.51047619e-01 
207 339.59 1.13409262e+01 3.40227787e-01 
208 340.40 1.48633849e+01 4.45901546e-01 
209 341.21 1.73641740e+01 5.20925220e-01 
210 342.02 2.07798839e+01 6.23396518e-01 
211 342.83 2.42445640e+01 7.27336921e-01 
212 343.64 2.51882505e+01 7.55647515e-01 
213 344.44 2.65561615e+01 7.96684844e-01 
214 345.25 3.03244652e+01 9.09733955e-01 
215 346.06 3.38501340e+01 1.01550402e+00 
216 346.87 3.61257438e+01 1.08377231e+00 
217 347.67 3.81830652e+01 1.14549196e+00 
218 348.48 3.97287805e+01 1.19186341e+00 
219 349.29 4.20417844e+01 1.26125353e+00 
220 350.10 4.70221086e+01 1.41066326e+00 
221 350.91 5.07876696e+01 1.52363009e+00 
222 351.71 5.12153075e+01 1.53645922e+00 
223 352.52 5.23110096e+01 1.56933029e+00 
224 353.33 5.72795268e+01 1.71838580e+00 
225 354.14 6.40934347e+01 1.92280304e+00 
226 354.94 6.76067952e+01 2.02820386e+00 
227 355.75 6.68294049e+01 2.00488215e+00 
228 356.56 6.32663104e+01 1.89798931e+00 
229 357.37 5.94614634e+01 1.78384390e+00 
230 358.18 5.83130676e+01 1.74939203e+00 
231 358.98 6.54542031e+01 1.96362609e+00 
232 359.79 7.61597920e+01 2.28479376e+00 
233 360.60 7.90201317e+01 2.37060395e+00 
234 361.41 7.74208826e+01 2.32262648e+00 
235 362.21 8.12843200e+01 2.43852960e+00 
236 363.02 8.69388317e+01 2.60816495e+00 
237 363.83 9.03474552e+01 2.71042366e+00 
238 364.64 9.43547831e+01 2.83064349e+00 
239 365.44 1.03242569e+02 3.09727706e+00 
240 366.25 1.11622518e+02 3.34867553e+00 
241 367.06 1.12957845e+02 3.38873536e+00 
242 367.87 1.11464775e+02 3.34394324e+00 
243 368.67 1.12793159e+02 3.38379476e+00 
244 369.48 1.18003735e+02 3.54011206e+00 
245 370.29 1.19476729e+02 3.58430186e+00 
246 371.10 1.18482430e+02 3.55447289e+00 
247 371.90 1.15757756e+02 3.47273268e+00 
248 372.71 1.09593441e+02 3.28780324e+00 
249 373.52 1.03649864e+02 3.10949592e+00 
250 374.33 1.02381767e+02 3.07145300e+00 
251 375.13 1.08936458e+02 3.26809374e+00 
252 375.94 1.18970590e+02 3.56911771e+00 
253 376.75 1.29833318e+02 3.89499953e+00 
254 377.55 1.42483199e+02 4.27449598e+00 
255 378.36 1.47053142e+02 4.41159426e+00 
256 379.17 1.40187984e+02 4.20563951e+00 
257 379.98 1.36564365e+02 4.09693094e+00 
258 380.78 1.36601996e+02 4.09805987e+00 
259 381.59 1.26165622e+02 3.78496866e+00 
260 382.40 1.07729206e+02 3.23187619e+00 
261 383.21 9.79903956e+01 2.93971187e+00 
262 384.01 1.04997730e+02 3.14993191e+00 
263 384.82 1.19292263e+02 3.57876788e+00 
264 385.63 1.26215542e+02 3.78646625e+00 
265 386.43 1.27751992e+02 3.83255976e+00 
266 387.24 1.29316932e+02 3.87950795e+00 
267 388.05 1.31275606e+02 3.93826817e+00 
268 388.85 1.38754320e+02 4.16262960e+00 
269 389.66 1.51774185e+02 4.55322555e+00 
270 390.47 1.63171631e+02 4.89514892e+00 
271 391.27 1.65397943e+02 4.96193830e+00 
272 392.08 1.49614819e+02 4.48844458e+00 
273 392.89 1.22443581e+02 3.67330742e+00 
274 393.69 1.13742313e+02 3.41226938e+00 
275 394.50 1.34375939e+02 4.03127818e+00 
276 395.31 1.52718862e+02 4.58156585e+00 
277 396.11 1.44956346e+02 4.34869039e+00 
278 396.92 1.36256855e+02 4.08770564e+00 
279 397.73 1.57843632e+02 4.73530897e+00 
280 398.53 1.96125259e+02 5.88375776e+00 
281 399.34 2.22064099e+02 6.66192297e+00 
282 400.15 2.35098928e+02 7.05296784e+00 
283 400.95 2.43774891e+02 7.31324672e+00 
284 401.76 2.50885876e+02 7.52657629e+00 
285 402.57 2.53492328e+02 7.60476983e+00 
286 403.37 2.52201644e+02 7.56604932e+00 
287 404.18 2.51073196e+02 7.53219589e+00 
288 404.98 2.49661738e+02 7.48985213e+00 
289 405.79 2.48426143e+02 7.45278428e+00 
290 406.60 2.49278709e+02 7.47836127e+00 
291 407.40 2.55262499e+02 7.65787496e+00 
292 408.21 2.65053550e+02 7.95160650e+00 
293 409.02 2.69568083e+02 8.08704248e+00 
294 409.82 2.66873360e+02 8.00620081e+00 
295 410.63 2.68949649e+02 8.06848948e+00 
296 411.44 2.79861355e+02 8.39584065e+00 
297 412.24 2.88458384e+02 8.65375153e+00 
298 413.05 2.90229892e+02 8.70689677e+00 
299 413.85 2.90545190e+02 8.71635571e+00 
300 414.66 2.91682137e+02 8.75046410e+00 
301 415.46 2.92949132e+02 8.78847397e+00 
302 416.27 2.93511057e+02 8.80533170e+00 
303 417.08 2.90283099e+02 8.70849296e+00 
304 417.88 2.85337706e+02 8.56013118e+00 
305 418.69 2.83132658e+02 8.49397974e+00 
306 419.49 2.83875073e+02 8.51625218e+00 
307 420.30 2.87858172e+02 8.63574517e+00 
308 421.11 2.91531802e+02 8.74595407e+00 
309 421.91 2.90057883e+02 8.70173649e+00 
310 422.72 2.85346747e+02 8.56040240e+00 
311 423.52 2.84203386e+02 8.52610157e+00 
312 424.33 2.86897128e+02 8.60691383e+00 
313 425.13 2.88511001e+02 8.65533003e+00 
314 425.94 2.87959569e+02 8.63878706e+00 
315 426.74 2.86824825e+02 8.60474476e+00 
316 427.55 2.85426311e+02 8.56278933e+00 
317 428.35 2.81286043e+02 8.43858128e+00 
318 429.16 2.70183035e+02 8.10549105e+00 
319 429.96 2.57271339e+02 7.71814016e+00 
320 430.77 2.60603349e+02 7.81810048e+00 
321 431.58 2.84842216e+02 8.54526648e+00 
322 432.38 3.12557302e+02 9.37671906e+00 
323 433.19 3.26344340e+02 9.79033020e+00 
324 433.99 3.32476186e+02 9.97428558e+00 
325 434.80 3.43456407e+02 1.03036922e+01 
326 435.60 3.60251404e+02 1.08075421e+01 
327 436.41 3.72575603e+02 1.11772681e+01 
328 437.21 3.72999742e+02 1.11899923e+01 
329 438.02 3.67457897e+02 1.10237369e+01 
330 438.82 3.67461160e+02 1.10238348e+01 
331 439.63 3.76331454e+02 1.12899436e+01 
332 440.43 3.90977785e+02 1.17293335e+01 
333 441.24 4.06132528e+02 1.21839758e+01 
334 442.04 4.20091396e+02 1.26027419e+01 
335 442.84 4.30178477e+02 1.29053543e+01 
336 443.65 4.35949441e+02 1.30784832e+01 
337 444.45 4.37922062e+02 1.31376619e+01 
338 445.26 4.37236521e+02 1.31170956e+01 
339 446.06 4.39776042e+02 1.31932812e+01 
340 446.87 4.48710839e+02 1.34613252e+01 
341 447.67 4.60955642e+02 1.38286693e+01 
342 448.48 4.70625755e+02 1.41187726e+01 
343 449.28 4.79332284e+02 1.43799685e+01 
344 450.09 4.88920749e+02 1.46676225e+01 
345 450.89 4.95212718e+02 1.48563816e+01 
346 451.69 4.92029945e+02 1.47608984e+01 
347 452.50 4.83199876e+02 1.44959963e+01 
348 453.30 4.78230034e+02 1.43469010e+01 
349 454.11 4.79968925e+02 1.43990677e+01 
350 454.91 4.87045988e+02 1.46113796e+01 
351 455.72 4.95048443e+02 1.48514533e+01 
352 456.52 5.01726727e+02 1.50518018e+01 
353 457.32 5.04713372e+02 1.51414012e+01 
354 458.13 5.03832406e+02 1.51149722e+01 
355 458.93 5.02869013e+02 1.50860704e+01 
356 459.74 5.05388208e+02 1.51616462e+01 
357 460.54 5.12077930e+02 1.53623379e+01 
358 461.34 5.19694306e+02 1.55908292e+01 
359 462.15 5.25328475e+02 1.57598542e+01 
360 462.95 5.26268329e+02 1.57880499e+01 
361 463.76 5.23381675e+02 1.57014503e+01 
362 464.56 5.19839106e+02 1.55951732e+01 
363 465.36 5.16937361e+02 1.55081208e+01 
364 466.17 5.15619472e+02 1.54685842e+01 
365 466.97 5.16038679e+02 1.54811604e+01 
366 467.77 5.18138771e+02 1.55441631e+01 
367 468.58 5.21157563e+02 1.56347269e+01 
368 469.38 5.22096273e+02 1.56628882e+01 
369 470.18 5.23071654e+02 1.56921496e+01 
370 470.99 5.28159403e+02 1.58447821e+01 
371 471.79 5.35937096e+02 1.60781129e+01 
372 472.59 5.43662881e+02 1.63098864e+01 
373 473.40 5.49057746e+02 1.64717324e+01 
374 474.20 5.52310546e+02 1.65693164e+01 
375 475.00 5.54133217e+02 1.66239965e+01 
376 475.81 5.55455080e+02 1.66636524e+01 
377 476.61 5.58050649e+02 1.67415195e+01 
378 477.41 5.63139033e+02 1.68941710e+01 
379 478.21 5.68584017e+02 1.70575205e+01 
380 479.02 5.72451300e+02 1.71735390e+01 
381 479.82 5.74617166e+02 1.72385150e+01 
382 480.62 5.76993399e+02 1.73098020e+01 
383 481.43 5.78253405e+02 1.73476022e+01 
384 482.23 5.77278258e+02 1.73183477e+01 
385 483.03 5.73215519e+02 1.71964656e+01 
386 483.84 5.64096012e+02 1.69228804e+01 
387 484.64 5.46534483e+02 1.63960345e+01 
388 485.44 5.24901322e+02 1.57470397e+01 
389 486.24 5.11097685e+02 1.53329306e+01 
390 487.05 5.12112562e+02 1.53633769e+01 
391 487.85 5.25660645e+02 1.57698194e+01 
392 488.65 5.43130348e+02 1.62939105e+01 
393 489.45 5.55612517e+02 1.66683755e+01 
394 490.26 5.60238900e+02 1.68071670e+01 
395 491.06 5.58896363e+02 1.67668909e+01 
396 491.86 5.55100870e+02 1.66530261e+01 
397 492.66 5.54207935e+02 1.66262381e+01 
398 493.46 5.58857940e+02 1.67657382e+01 
399 494.27 5.65167742e+02 1.69550323e+01 
400 495.07 5.68947793e+02 1.70684338e+01 
401 495.87 5.70319216e+02 1.71095765e+01 
402 496.67 5.67889332e+02 1.70366800e+01 
403 497.48 5.63478949e+02 1.69043685e+01 
404 498.28 5.59034385e+02 1.67710316e+01 
405 499.08 5.53716847e+02 1.66115054e+01 
406 499.88 5.47923191e+02 1.64376957e+01 
407 500.68 5.43162106e+02 1.62948632e+01 
408 501.48 5.40539876e+02 1.62161963e+01 
409 502.29 5.42131979e+02 1.62639594e+01 
410 503.09 5.45901356e+02 1.63770407e+01 
411 503.89 5.51004629e+02 1.65301389e+01 
412 504.69 5.56865064e+02 1.67059519e+01 
413 505.49 5.61592296e+02 1.68477689e+01 
414 506.29 5.62723428e+02 1.68817028e+01 
415 507.09 5.60417782e+02 1.68125335e+01 
416 507.90 5.57277394e+02 1.67183218e+01 
417 508.70 5.55975793e+02 1.66792738e+01 
418 509.50 5.56468406e+02 1.66940522e+01 
419 510.30 5.57790926e+02 1.67337278e+01 
420 511.10 5.57121097e+02 1.67136329e+01 
421 511.90 5.53485107e+02 1.66045532e+01 
422 512.70 5.47883688e+02 1.64365106e+01 
423 513.51 5.41394779e+02 1.62418434e+01 
424 514.31 5.35842835e+02 1.60752851e+01 
425 515.11 5.28356312e+02 1.58506894e+01 
426 515.91 5.15496412e+02 1.54648924e+01 
427 516.71 5.02047319e+02 1.50614196e+01 
428 517.51 4.93490963e+02 1.48047289e+01 
429 518.31 4.95566169e+02 1.48669851e+01 
430 519.11 5.06694854e+02 1.52008456e+01 
431 519.91 5.18950355e+02 1.55685106e+01 
432 520.71 5.28572159e+02 1.58571648e+01 
433 521.51 5.32806724e+02 1.59842017e+01 
434 522.32 5.35005465e+02 1.60501640e+01 
435 523.12 5.38857350e+02 1.61657205e+01 
436 523.92 5.42822541e+02 1.62846762e+01 
437 524.72 5.43380698e+02 1.63014209e+01 
438 525.52 5.36915558e+02 1.61074667e+01 
439 526.32 5.27733116e+02 1.58319935e+01 
440 527.12 5.25082553e+02 1.57524766e+01 
441 527.92 5.30997036e+02 1.59299111e+01 
442 528.72 5.42469761e+02 1.62740928e+01 
443 529.52 5.53226356e+02 1.65967907e+01 
444 530.32 5.58523123e+02 1.67556937e+01 
445 531.12 5.57357733e+02 1.67207320e+01 
446 531.92 5.52424093e+02 1.65727228e+01 
447 532.72 5.47661049e+02 1.64298315e+01 
448 533.52 5.46370926e+02 1.63911278e+01 
449 534.32 5.49870111e+02 1.64961033e+01 
450 535.12 5.54137145e+02 1.66241144e+01 
451 535.92 5.55174989e+02 1.66552497e+01 
452 536.72 5.54161049e+02 1.66248315e+01 
453 537.52 5.52093522e+02 1.65628057e+01 
454 538.32 5.48772083e+02 1.64631625e+01 
455 539.12 5.44424713e+02 1.63327414e+01 
456 539.92 5.40275874e+02 1.62082762e+01 
457 540.72 5.38502115e+02 1.61550634e+01 
458 541.52 5.40053772e+02 1.62016132e+01 
459 542.32 5.44199204e+02 1.63259761e+01 
460 543.12 5.48694537e+02 1.64608361e+01 
461 543.92 5.51550728e+02 1.65465219e+01 
462 544.72 5.53195819e+02 1.65958746e+01 
463 545.52 5.53044269e+02 1.65913281e+01 
464 546.31 5.50683681e+02 1.65205104e+01 
465 547.12 5.47663049e+02 1.64298915e+01 
466 547.91 5.45599040e+02 1.63679712e+01 
467 548.71 5.44806941e+02 1.63442082e+01 
468 549.51 5.45018136e+02 1.63505441e+01 
469 550.31 5.45196582e+02 1.63558975e+01 
470 551.11 5.44847567e+02 1.63454270e+01 
471 551.91 5.44619042e+02 1.63385713e+01 
472 552.71 5.44608479e+02 1.63382544e+01 
