% C0 (TOA Count Rate, /ms) for 4STAR NIR spectrometer (512 channels) derived from (SEE Original files for sources) and recorded on 2017-06-16 15:35:24.
% Langley at MLO and airborne Data outside 2.0x the STD of 501 nm Langley residuals were screened out. 
% Including high Altitude rate spectra, matched to splined stratospheric AOD measured at MLO.
% Averages of c0 from multiple days including: , infl-ig-ht, high- a-lt, high- a-lt, high- a-lt, high- a-lt. See the list of files below
% 20160908_NIR_C0_refined_Langley_airborne_ORACLES_v1.dat
% 20160902_NIR_C0_refined_high_alt_low_m.dat
% 20160904_NIR_C0_refined_high_alt_low_m.dat
% 20160908_NIR_C0_refined_high_alt_low_m.dat
% 20160831_NIR_C0_refined_high_alt_low_m.dat
Pix Wavelength C0 C0err
511 949.79 5.38494206e+00 7.00558003e-02 
510 949.79 5.54354610e+00 7.10710942e-02 
509 951.68 5.93926172e+00 6.87691120e-02 
508 953.57 5.99527178e+00 6.25301208e-02 
507 955.46 6.46651154e+00 6.24403291e-02 
506 957.34 6.56425228e+00 6.10100793e-02 
505 959.22 7.03357363e+00 6.43296655e-02 
504 961.10 7.11022320e+00 5.73361589e-02 
503 962.98 7.53882484e+00 6.96152264e-02 
502 964.85 7.52660141e+00 5.91211706e-02 
501 966.72 8.03485756e+00 7.44309704e-02 
500 968.59 8.05077591e+00 6.69337488e-02 
499 970.45 8.45030556e+00 6.95872760e-02 
498 972.32 8.39895458e+00 5.56873622e-02 
497 974.18 8.73025112e+00 5.42647514e-02 
496 976.04 8.64231072e+00 5.29795059e-02 
495 977.89 8.98408184e+00 6.34608166e-02 
494 979.74 8.87935772e+00 5.68507006e-02 
493 981.59 9.16928806e+00 6.63662140e-02 
492 983.44 9.03565102e+00 7.32169858e-02 
491 985.29 9.29409847e+00 7.40408699e-02 
490 987.13 9.08737869e+00 7.45723638e-02 
489 988.97 9.32217560e+00 8.22173781e-02 
488 990.81 9.13443851e+00 7.10008573e-02 
487 992.65 9.31269360e+00 8.41811978e-02 
486 994.48 9.11590233e+00 7.61186934e-02 
485 996.31 9.26508770e+00 8.05198050e-02 
484 998.14 9.02249222e+00 6.92298454e-02 
483 999.97 9.16044388e+00 8.21921782e-02 
482 1001.79 8.88180332e+00 7.39371700e-02 
481 1003.62 8.96088581e+00 7.78859330e-02 
480 1005.44 8.73809948e+00 7.59054368e-02 
479 1007.25 8.97895489e+00 7.48596469e-02 
478 1009.07 8.75667229e+00 7.31233739e-02 
477 1010.88 8.92673683e+00 7.39919660e-02 
476 1012.69 8.64990006e+00 7.15763652e-02 
475 1014.50 8.77326660e+00 7.92220702e-02 
474 1016.31 8.55610542e+00 7.44618334e-02 
473 1018.11 8.69504242e+00 8.30766020e-02 
472 1019.91 8.44327850e+00 7.64643733e-02 
471 1021.71 8.59737835e+00 8.89130096e-02 
470 1023.51 8.37170067e+00 8.28174386e-02 
469 1025.30 8.54547214e+00 9.05183584e-02 
468 1027.09 8.43628158e+00 8.67797994e-02 
467 1028.88 8.58376446e+00 9.39964276e-02 
466 1030.67 8.43039761e+00 8.95132438e-02 
465 1032.46 8.61017285e+00 9.22720110e-02 
464 1034.24 8.44810200e+00 9.97427275e-02 
463 1036.02 8.64581585e+00 1.02913049e-01 
462 1037.80 8.51459255e+00 9.66018972e-02 
461 1039.58 8.71897621e+00 1.09269103e-01 
460 1041.35 8.57212620e+00 9.48409787e-02 
459 1043.12 8.72866268e+00 1.03084778e-01 
458 1044.89 8.64389229e+00 9.64504987e-02 
457 1046.66 8.87375336e+00 1.06558661e-01 
456 1048.43 8.81291237e+00 1.02399244e-01 
455 1050.19 9.04036846e+00 1.05912798e-01 
454 1051.95 8.90017357e+00 1.01092559e-01 
453 1053.71 9.16172829e+00 1.05247317e-01 
452 1055.47 8.99798298e+00 9.85364765e-02 
451 1057.23 9.13687668e+00 1.00716913e-01 
450 1058.98 8.98159027e+00 9.78166566e-02 
449 1060.73 9.14581146e+00 1.01555172e-01 
448 1062.48 8.93521252e+00 9.29271422e-02 
447 1064.23 9.06355209e+00 9.44310098e-02 
446 1065.97 8.76969032e+00 8.73755778e-02 
445 1067.71 8.82436371e+00 9.62604276e-02 
444 1069.46 8.62372627e+00 8.97118209e-02 
443 1071.19 8.74715423e+00 9.81631302e-02 
442 1072.93 8.59455051e+00 9.78754071e-02 
441 1074.67 8.68551922e+00 9.48313729e-02 
440 1076.40 8.48481922e+00 9.44693763e-02 
439 1078.13 8.51826134e+00 9.36333294e-02 
438 1079.86 8.28080998e+00 9.25347753e-02 
437 1081.58 8.36088467e+00 9.12844862e-02 
436 1083.31 8.24550171e+00 8.00996230e-02 
435 1085.03 8.43627319e+00 9.23751939e-02 
434 1086.75 8.36897335e+00 9.44541675e-02 
433 1088.47 8.53744736e+00 9.81909968e-02 
432 1090.19 8.43520107e+00 8.81091872e-02 
431 1091.90 8.55898552e+00 9.14015754e-02 
430 1093.61 8.44096031e+00 7.27899085e-02 
429 1095.33 8.66249924e+00 7.92355855e-02 
428 1097.03 8.69877739e+00 6.83276396e-02 
427 1098.74 8.95481301e+00 6.48423327e-02 
426 1100.45 8.97250271e+00 6.72558374e-02 
425 1102.15 9.26819477e+00 6.93444181e-02 
424 1103.85 9.29261971e+00 5.66551668e-02 
423 1105.55 9.57111473e+00 5.50258685e-02 
422 1107.25 9.51273174e+00 5.19737659e-02 
421 1108.94 9.69165726e+00 4.45403444e-02 
420 1110.64 9.51791134e+00 3.06680669e-02 
419 1112.33 9.55785160e+00 7.44650070e-02 
418 1114.02 9.22888622e+00 1.41812861e-01 
417 1115.70 9.20348644e+00 1.80537405e-01 
416 1117.39 8.94090080e+00 2.10283665e-01 
415 1119.07 8.91224537e+00 2.45310793e-01 
414 1120.76 8.77429810e+00 2.74138128e-01 
413 1122.44 8.85517177e+00 3.12646414e-01 
412 1124.12 8.79830570e+00 3.15438916e-01 
411 1125.79 8.99537010e+00 3.10285570e-01 
410 1127.47 9.12470608e+00 2.64027597e-01 
409 1129.14 9.39273357e+00 2.21051809e-01 
408 1130.81 9.02968216e+00 2.78442308e-01 
407 1132.48 8.96118164e+00 3.04074016e-01 
406 1134.15 8.79954433e+00 2.96348794e-01 
405 1135.81 9.09147701e+00 2.27421528e-01 
404 1137.48 9.43396206e+00 1.20951765e-01 
403 1139.14 9.65464859e+00 1.04157368e-01 
402 1140.80 9.40343819e+00 1.36578925e-01 
401 1142.46 9.38556252e+00 1.74212538e-01 
400 1144.12 9.14293327e+00 1.94769149e-01 
399 1145.77 9.20076961e+00 2.04681409e-01 
398 1147.43 9.17459507e+00 1.81186259e-01 
397 1149.08 9.32484112e+00 1.44525758e-01 
396 1150.73 9.27111091e+00 1.29245585e-01 
395 1152.38 9.49308376e+00 1.07717213e-01 
394 1154.02 9.44838257e+00 8.51897293e-02 
393 1155.67 9.64273186e+00 5.47856016e-02 
392 1157.31 9.47415848e+00 3.63232587e-02 
391 1158.95 9.55130405e+00 2.32882793e-02 
390 1160.59 9.44651470e+00 2.92924479e-02 
389 1162.23 9.57911434e+00 4.32403073e-02 
388 1163.87 9.46548481e+00 3.96785733e-02 
387 1165.50 9.53130188e+00 5.18218827e-02 
386 1167.13 9.41947842e+00 4.75182540e-02 
385 1168.76 9.52660389e+00 4.97317170e-02 
384 1170.39 9.40155754e+00 3.64190252e-02 
383 1172.02 9.39273911e+00 3.78209133e-02 
382 1173.65 9.19432526e+00 3.01361753e-02 
381 1175.27 9.17940159e+00 4.23607246e-02 
380 1176.90 9.05351562e+00 4.30214387e-02 
379 1178.52 9.02802239e+00 4.10119543e-02 
378 1180.14 8.81144466e+00 3.09632031e-02 
377 1181.75 8.80595360e+00 3.55817172e-02 
376 1183.37 8.61706352e+00 2.80494030e-02 
375 1184.99 8.64250622e+00 3.03365306e-02 
374 1186.60 8.49715671e+00 3.57434933e-02 
373 1188.21 8.45140762e+00 4.26511659e-02 
372 1189.82 8.35392208e+00 5.22894137e-02 
371 1191.43 8.54775677e+00 6.33417809e-02 
370 1193.04 8.44514389e+00 5.37076756e-02 
369 1194.64 8.44161053e+00 5.40800416e-02 
368 1196.24 8.28152561e+00 4.84187793e-02 
367 1197.85 8.34093361e+00 4.25197703e-02 
366 1199.45 8.22065888e+00 4.18474228e-02 
365 1201.05 8.30370064e+00 3.81757076e-02 
364 1202.64 8.21335640e+00 2.88329207e-02 
363 1204.24 8.22594662e+00 2.75513317e-02 
362 1205.83 8.13583240e+00 3.98550250e-02 
361 1207.43 8.14875088e+00 5.51303180e-02 
360 1209.02 8.10385246e+00 6.06882002e-02 
359 1210.61 8.23424816e+00 6.15156814e-02 
358 1212.19 8.20596943e+00 7.38517540e-02 
357 1213.78 8.33743572e+00 8.29777810e-02 
356 1215.37 8.27518711e+00 6.47759152e-02 
355 1216.95 8.31569919e+00 7.05547822e-02 
354 1218.53 8.26040859e+00 6.63488925e-02 
353 1220.11 8.33220196e+00 6.53456583e-02 
352 1221.69 8.31267109e+00 5.91250380e-02 
351 1223.27 8.36225605e+00 6.87456733e-02 
350 1224.84 8.34145374e+00 6.81071528e-02 
349 1226.42 8.38437195e+00 6.81206439e-02 
348 1227.99 8.35574360e+00 7.12389894e-02 
347 1229.56 8.48533821e+00 7.92145339e-02 
346 1231.13 8.40573292e+00 7.52643446e-02 
345 1232.70 8.48141460e+00 8.07872561e-02 
344 1234.27 8.44065723e+00 8.07773616e-02 
343 1235.84 8.45749264e+00 7.61893330e-02 
342 1237.40 8.38235836e+00 6.80127147e-02 
341 1238.96 8.37440567e+00 7.20624715e-02 
340 1240.52 8.22506199e+00 6.23501793e-02 
339 1242.08 8.34244728e+00 6.30283482e-02 
338 1243.64 8.30739231e+00 6.03972909e-02 
337 1245.20 8.34965305e+00 6.64634922e-02 
336 1246.75 8.32585678e+00 5.75291474e-02 
335 1248.31 8.38878193e+00 5.27009578e-02 
334 1249.86 8.31602955e+00 5.02245933e-02 
333 1251.41 8.33115788e+00 5.52405535e-02 
332 1252.96 8.23994789e+00 4.11664853e-02 
331 1254.51 8.26096630e+00 4.19106850e-02 
330 1256.06 8.18449497e+00 2.56726085e-02 
329 1257.61 8.13649254e+00 1.85811342e-02 
328 1259.15 8.03515635e+00 5.21124775e-02 
327 1260.69 7.98795443e+00 7.29684367e-02 
326 1262.23 7.87437801e+00 1.11780451e-01 
325 1263.77 7.86690149e+00 1.29784570e-01 
324 1265.31 7.70732107e+00 1.69575129e-01 
323 1266.85 7.75879497e+00 1.79785979e-01 
322 1268.39 7.80659657e+00 1.65186818e-01 
321 1269.92 7.92555590e+00 1.30981331e-01 
320 1271.46 8.06040516e+00 8.23944531e-02 
319 1272.99 8.08672504e+00 3.86939179e-02 
318 1274.52 8.06109810e+00 2.65009029e-02 
317 1276.05 8.12727108e+00 2.59408787e-02 
316 1277.58 7.98408852e+00 2.71607037e-02 
315 1279.10 7.84799061e+00 4.73930249e-02 
314 1280.63 7.81040668e+00 5.50157351e-02 
313 1282.15 7.81465073e+00 6.54165815e-02 
312 1283.68 7.90739889e+00 6.37720462e-02 
311 1285.20 8.07246189e+00 7.20950410e-02 
310 1286.72 8.04641323e+00 6.18656101e-02 
309 1288.24 8.06822949e+00 6.76295111e-02 
308 1289.75 7.95435543e+00 6.45928738e-02 
307 1291.27 7.98060112e+00 7.28025956e-02 
306 1292.78 8.02787180e+00 7.22978117e-02 
305 1294.30 8.04617834e+00 6.74100439e-02 
304 1295.81 7.97136402e+00 6.82283896e-02 
303 1297.32 7.98132410e+00 6.67444045e-02 
302 1298.83 7.93622913e+00 5.29146213e-02 
301 1300.34 7.90189609e+00 4.90303534e-02 
300 1301.85 7.85327062e+00 5.02242100e-02 
299 1303.35 7.81825113e+00 5.00607157e-02 
298 1304.86 7.74532375e+00 3.17175099e-02 
297 1306.36 7.73251658e+00 3.06275830e-02 
296 1307.86 7.66293726e+00 2.46804286e-02 
295 1309.36 7.56888313e+00 2.41711201e-02 
294 1310.86 7.49595327e+00 1.58607461e-02 
293 1312.36 7.43222789e+00 2.34609232e-02 
292 1313.86 7.37546873e+00 1.90923570e-02 
291 1315.36 7.38604069e+00 1.78011645e-02 
290 1316.85 7.32940082e+00 2.46592119e-02 
289 1318.34 7.30423432e+00 2.25917946e-02 
288 1319.84 7.25416422e+00 2.65851122e-02 
287 1321.33 7.26289969e+00 2.85267708e-02 
286 1322.82 7.21229210e+00 2.47632844e-02 
285 1324.30 7.22197428e+00 2.75159229e-02 
284 1325.79 7.10367241e+00 3.59222768e-02 
283 1327.28 6.99799061e+00 5.07471666e-02 
282 1328.76 6.83059988e+00 8.12721602e-02 
281 1330.25 6.77007093e+00 9.03059776e-02 
280 1331.73 6.70079889e+00 8.94512629e-02 
279 1333.21 6.71216116e+00 9.17523945e-02 
278 1334.69 6.69598026e+00 8.30889297e-02 
277 1336.17 6.64712114e+00 7.71184257e-02 
276 1337.65 6.59139071e+00 7.70910889e-02 
275 1339.12 6.51842937e+00 6.38009865e-02 
274 1340.60 6.44876051e+00 8.04490715e-02 
273 1342.07 6.38932848e+00 9.01900574e-02 
272 1343.55 6.21668482e+00 1.22088865e-01 
271 1345.02 5.86679888e+00 1.77528286e-01 
270 1346.49 5.61540813e+00 2.09397207e-01 
269 1347.96 5.33274412e+00 2.40955032e-01 
268 1349.43 5.01938705e+00 2.90845556e-01 
267 1350.89 4.68428869e+00 3.28407139e-01 
266 1352.36 4.22550058e+00 3.86226816e-01 
265 1353.82 3.91026502e+00 4.14158301e-01 
264 1355.29 3.59812303e+00 4.61185150e-01 
263 1356.75 3.38575249e+00 4.91441748e-01 
262 1358.21 3.02653122e+00 5.25619968e-01 
261 1359.67 2.72267599e+00 5.45690188e-01 
260 1361.13 2.54574492e+00 5.53206770e-01 
259 1362.59 2.51604838e+00 5.40997007e-01 
258 1364.04 2.66202204e+00 5.42661213e-01 
257 1365.50 2.63228047e+00 5.43900693e-01 
256 1366.95 2.64708462e+00 5.49291326e-01 
255 1368.41 2.54125917e+00 5.54941519e-01 
254 1369.86 2.59756715e+00 5.38952051e-01 
253 1371.31 2.76199117e+00 4.86360063e-01 
252 1372.76 2.80862498e+00 4.34863550e-01 
251 1374.21 2.89733038e+00 3.74418250e-01 
250 1375.65 2.79062133e+00 3.33796705e-01 
249 1377.10 2.51020999e+00 3.13532007e-01 
248 1378.55 2.18010593e+00 3.19661144e-01 
247 1379.99 1.82502763e+00 3.07199924e-01 
246 1381.43 1.67090475e+00 3.32926365e-01 
245 1382.87 1.72202432e+00 3.37790935e-01 
244 1384.32 1.89967146e+00 3.29461335e-01 
243 1385.75 2.13983362e+00 3.08825948e-01 
242 1387.19 2.41596689e+00 2.76042907e-01 
241 1388.63 2.50418906e+00 2.54028798e-01 
240 1390.07 2.56129446e+00 2.65891075e-01 
239 1391.50 2.52705045e+00 2.90152135e-01 
238 1392.94 2.24614532e+00 3.28568913e-01 
237 1394.37 2.32681053e+00 3.24696503e-01 
236 1395.80 2.50870652e+00 3.21341070e-01 
235 1397.23 2.43360872e+00 3.24854434e-01 
234 1398.66 2.59468188e+00 3.17300997e-01 
233 1400.09 2.72290182e+00 3.24421032e-01 
232 1401.52 2.60458317e+00 3.48081332e-01 
231 1402.94 2.79974217e+00 3.24816388e-01 
230 1404.37 2.89104667e+00 3.22677665e-01 
229 1405.79 2.81118598e+00 3.26917358e-01 
228 1407.22 2.90980272e+00 3.25610399e-01 
227 1408.64 3.07069593e+00 3.05249444e-01 
226 1410.06 3.24733634e+00 2.79723605e-01 
225 1411.48 3.26097870e+00 2.76610581e-01 
224 1412.90 3.41447578e+00 2.59940911e-01 
223 1414.32 3.48856292e+00 2.37467863e-01 
222 1415.73 3.46317134e+00 2.56748773e-01 
221 1417.15 3.54253926e+00 2.51302448e-01 
220 1418.56 3.65158572e+00 2.42197975e-01 
219 1419.98 3.60163231e+00 2.33403388e-01 
218 1421.39 3.69436068e+00 2.18317783e-01 
217 1422.80 3.80634365e+00 1.81913415e-01 
216 1424.21 3.83482690e+00 1.91589453e-01 
215 1425.62 3.82842183e+00 1.88378103e-01 
214 1427.03 3.90495772e+00 1.78760254e-01 
213 1428.44 3.75886622e+00 2.02469581e-01 
212 1429.84 3.63229403e+00 2.30033551e-01 
211 1431.25 3.60520592e+00 2.20989118e-01 
210 1432.65 3.57684541e+00 2.41267641e-01 
209 1434.06 3.61494636e+00 2.32282746e-01 
208 1435.46 3.71756153e+00 2.25289406e-01 
207 1436.86 3.74251327e+00 2.12261958e-01 
206 1438.26 3.77056012e+00 2.01620152e-01 
205 1439.66 3.79616723e+00 1.88557336e-01 
204 1441.05 3.90742664e+00 1.66407774e-01 
203 1442.45 3.82659769e+00 1.71189107e-01 
202 1443.85 3.84947105e+00 1.70204155e-01 
201 1445.24 3.93083596e+00 1.48664083e-01 
200 1446.64 3.97127681e+00 1.51247195e-01 
199 1448.03 3.95213709e+00 1.55933341e-01 
198 1449.42 4.04417243e+00 1.50532033e-01 
197 1450.81 4.04856939e+00 1.39090680e-01 
196 1452.20 4.07148623e+00 1.24320627e-01 
195 1453.59 4.21679878e+00 8.61374776e-02 
194 1454.97 4.33372002e+00 6.35935990e-02 
193 1456.36 4.33345175e+00 5.25506967e-02 
192 1457.75 4.36911430e+00 5.12221714e-02 
191 1459.13 4.32427282e+00 4.80800567e-02 
190 1460.51 4.30439062e+00 6.12347455e-02 
189 1461.90 4.17914066e+00 7.09206211e-02 
188 1463.28 4.14512835e+00 9.54420158e-02 
187 1464.66 4.06690598e+00 1.05722474e-01 
186 1466.04 4.09657283e+00 1.14898096e-01 
185 1467.41 3.98526897e+00 1.30725158e-01 
184 1468.79 3.94700522e+00 1.33347884e-01 
183 1470.17 3.89294720e+00 1.26811969e-01 
182 1471.54 3.94117408e+00 1.23473246e-01 
181 1472.92 3.99266529e+00 1.02775546e-01 
180 1474.29 4.08090806e+00 8.40576451e-02 
179 1475.66 4.07165761e+00 7.32254629e-02 
178 1477.03 4.03316317e+00 8.48001484e-02 
177 1478.40 3.99195280e+00 8.34145363e-02 
176 1479.77 4.04441786e+00 8.05207701e-02 
175 1481.14 4.03712554e+00 6.54431127e-02 
174 1482.51 4.11950083e+00 6.34998031e-02 
173 1483.87 4.06796894e+00 5.46669475e-02 
172 1485.24 4.03455462e+00 6.14697799e-02 
171 1486.60 3.98673415e+00 5.59538856e-02 
170 1487.96 4.03305745e+00 5.47051273e-02 
169 1489.32 4.00729508e+00 3.18362386e-02 
168 1490.68 4.14375820e+00 2.88400653e-02 
167 1492.04 4.13122397e+00 1.58289489e-02 
166 1493.40 4.15942154e+00 8.89557548e-03 
165 1494.76 4.11184368e+00 1.71140382e-02 
164 1496.12 4.14642801e+00 1.17684648e-02 
163 1497.47 4.11368351e+00 1.66136437e-02 
162 1498.83 4.18151655e+00 1.95930231e-02 
161 1500.18 4.04024859e+00 1.76135280e-02 
160 1501.53 3.97304874e+00 4.45281241e-03 
159 1502.89 3.85738230e+00 6.68354520e-03 
158 1504.24 3.87182937e+00 4.56052641e-03 
157 1505.59 3.89722743e+00 1.66500551e-02 
156 1506.93 4.01029020e+00 1.48350905e-02 
155 1508.28 4.03083940e+00 2.14195952e-02 
154 1509.63 4.06277094e+00 2.37227775e-02 
153 1510.97 4.01008153e+00 2.73724288e-02 
152 1512.32 4.05424604e+00 2.61772309e-02 
151 1513.66 3.97654128e+00 3.13190964e-02 
150 1515.00 4.01848464e+00 2.59580391e-02 
149 1516.34 3.98587999e+00 3.05779403e-02 
148 1517.69 4.00826707e+00 2.47236048e-02 
147 1519.02 3.95032196e+00 2.51699620e-02 
146 1520.36 3.96830282e+00 2.55644128e-02 
145 1521.70 3.91420474e+00 3.48944023e-02 
144 1523.04 3.97872581e+00 3.63725289e-02 
143 1524.37 3.93156509e+00 4.31475899e-02 
142 1525.71 3.97370376e+00 4.46999958e-02 
141 1527.04 3.90228028e+00 4.47566838e-02 
140 1528.37 3.93197689e+00 3.68587742e-02 
139 1529.70 3.85358238e+00 3.55753718e-02 
138 1531.03 3.89101610e+00 3.30769248e-02 
137 1532.36 3.83264947e+00 3.34045492e-02 
136 1533.69 3.86805387e+00 2.96319242e-02 
135 1535.02 3.78998089e+00 3.36781795e-02 
134 1536.34 3.81778703e+00 3.14229723e-02 
133 1537.67 3.74608774e+00 3.98473066e-02 
132 1538.99 3.79306221e+00 3.99336719e-02 
131 1540.31 3.74388251e+00 3.99982754e-02 
130 1541.64 3.78261328e+00 4.18127744e-02 
129 1542.96 3.75477743e+00 4.35376245e-02 
128 1544.28 3.78856382e+00 4.42541886e-02 
127 1545.60 3.70982198e+00 4.56226530e-02 
126 1546.91 3.75467625e+00 3.59432749e-02 
125 1548.23 3.66766896e+00 3.42480512e-02 
124 1549.55 3.69390521e+00 4.09264715e-02 
123 1550.86 3.61578827e+00 4.63739905e-02 
122 1552.18 3.63712444e+00 4.20359845e-02 
121 1553.49 3.57872825e+00 4.30335571e-02 
120 1554.80 3.64225502e+00 3.32144580e-02 
119 1556.11 3.57564368e+00 3.33661244e-02 
118 1557.42 3.61747866e+00 3.26257253e-02 
117 1558.73 3.54856143e+00 3.61996778e-02 
116 1560.04 3.56870432e+00 3.53794271e-02 
115 1561.34 3.48623915e+00 3.52685037e-02 
114 1562.65 3.53910623e+00 3.13285488e-02 
113 1563.95 3.46263165e+00 3.40729521e-02 
112 1565.26 3.52497349e+00 2.99232286e-02 
111 1566.56 3.40472541e+00 2.66517805e-02 
110 1567.86 3.42640447e+00 1.50210071e-02 
109 1569.16 3.32341294e+00 1.78094729e-02 
108 1570.46 3.31708221e+00 2.68645679e-02 
107 1571.76 3.21463566e+00 1.94940592e-02 
106 1573.05 3.20005655e+00 1.91317216e-02 
105 1574.35 3.09432716e+00 1.83407031e-02 
104 1575.64 3.12051773e+00 1.21834677e-02 
103 1576.94 3.08121481e+00 1.46528031e-02 
102 1578.23 3.14560723e+00 1.40096267e-02 
101 1579.52 3.11395311e+00 1.33342090e-02 
100 1580.81 3.18584208e+00 1.42764376e-02 
99 1582.10 3.12444544e+00 1.47976068e-02 
98 1583.39 3.18346786e+00 1.63578253e-02 
97 1584.68 3.11340037e+00 1.91502643e-02 
96 1585.97 3.10235505e+00 1.89420173e-02 
95 1587.25 2.99829659e+00 2.49309817e-02 
94 1588.54 3.01395574e+00 1.95346291e-02 
93 1589.82 2.95015931e+00 2.09427882e-02 
92 1591.10 3.04642110e+00 2.17756411e-02 
91 1592.38 3.01361246e+00 1.90129637e-02 
90 1593.66 3.07409253e+00 1.76082038e-02 
89 1594.94 2.99598513e+00 2.52979087e-02 
88 1596.22 3.03196449e+00 1.21802366e-02 
87 1597.50 2.93334880e+00 1.28754724e-02 
86 1598.77 2.95059700e+00 2.16256931e-02 
85 1600.05 2.85381355e+00 2.41004165e-02 
84 1601.32 2.87813497e+00 3.24668562e-02 
83 1602.59 2.79830127e+00 2.71428035e-02 
82 1603.86 2.85852075e+00 2.88356946e-02 
81 1605.13 2.74712997e+00 2.36361718e-02 
80 1606.40 2.80639896e+00 2.72416660e-02 
79 1607.67 2.70698080e+00 2.05867959e-02 
78 1608.94 2.74974985e+00 2.22740172e-02 
77 1610.20 2.68232293e+00 1.27212577e-02 
76 1611.47 2.74205036e+00 1.66353509e-02 
75 1612.73 2.66912970e+00 1.43824057e-02 
74 1614.00 2.70991540e+00 1.38595506e-02 
73 1615.26 2.62846160e+00 1.80580968e-02 
72 1616.52 2.65054078e+00 1.44983812e-02 
71 1617.78 2.54866910e+00 2.29771251e-02 
70 1619.03 2.58996506e+00 1.61806787e-02 
69 1620.29 2.52646351e+00 2.04300621e-02 
68 1621.55 2.58895483e+00 1.94852116e-02 
67 1622.80 2.52555265e+00 2.32316020e-02 
66 1624.06 2.58558693e+00 2.46991633e-02 
65 1625.31 2.48523026e+00 2.53052409e-02 
64 1626.56 2.54642248e+00 1.96675873e-02 
63 1627.81 2.44805980e+00 2.15900913e-02 
