% C0 (TOA Count Rate, /ms) for 4STAR NIR spectrometer (512 channels) derived from 4STAR_20161111starsun.mat and recorded on 2016-11-11 18:23:45.
% Data outside 2.0x the STD of 501 nm Langley residuals were screened out.
Pix Wavelength C0 C0err
511 949.79 4.06084845e+00 1.21825453e-01 
510 949.79 5.01059423e+00 1.50317827e-01 
509 951.68 5.41027360e+00 1.62308208e-01 
508 953.57 5.47037712e+00 1.64111314e-01 
507 955.46 5.93031413e+00 1.77909424e-01 
506 957.34 6.05880788e+00 1.81764236e-01 
505 959.22 6.59234607e+00 1.97770382e-01 
504 961.10 6.74299526e+00 2.02289858e-01 
503 962.98 7.24461159e+00 2.17338348e-01 
502 964.85 7.31848483e+00 2.19554545e-01 
501 966.72 7.91622217e+00 2.37486665e-01 
500 968.59 8.02293756e+00 2.40688127e-01 
499 970.45 8.44093070e+00 2.53227921e-01 
498 972.32 8.38685978e+00 2.51605793e-01 
497 974.18 8.69945278e+00 2.60983584e-01 
496 976.04 8.64145383e+00 2.59243615e-01 
495 977.89 9.02125133e+00 2.70637540e-01 
494 979.74 8.97012169e+00 2.69103651e-01 
493 981.59 9.29469504e+00 2.78840851e-01 
492 983.44 9.20434356e+00 2.76130307e-01 
491 985.29 9.46148215e+00 2.83844464e-01 
490 987.13 9.27672435e+00 2.78301730e-01 
489 988.97 9.53856311e+00 2.86156893e-01 
488 990.81 9.33227716e+00 2.79968315e-01 
487 992.65 9.51476321e+00 2.85442896e-01 
486 994.48 9.31793703e+00 2.79538111e-01 
485 996.31 9.44302122e+00 2.83290637e-01 
484 998.14 9.19649397e+00 2.75894819e-01 
483 999.97 9.36231783e+00 2.80869535e-01 
482 1001.79 9.07653334e+00 2.72296000e-01 
481 1003.62 9.18737224e+00 2.75621167e-01 
480 1005.44 8.98407467e+00 2.69522240e-01 
479 1007.25 9.24261026e+00 2.77278308e-01 
478 1009.07 9.03381482e+00 2.71014445e-01 
477 1010.88 9.18225661e+00 2.75467698e-01 
476 1012.69 8.90291430e+00 2.67087429e-01 
475 1014.50 9.00699048e+00 2.70209714e-01 
474 1016.31 8.77256294e+00 2.63176888e-01 
473 1018.11 8.93086015e+00 2.67925805e-01 
472 1019.91 8.68033077e+00 2.60409923e-01 
471 1021.71 8.84405510e+00 2.65321653e-01 
470 1023.51 8.60862755e+00 2.58258826e-01 
469 1025.30 8.76162630e+00 2.62848789e-01 
468 1027.09 8.63280290e+00 2.58984087e-01 
467 1028.88 8.75778952e+00 2.62733686e-01 
466 1030.67 8.58360672e+00 2.57508202e-01 
465 1032.46 8.73720859e+00 2.62116258e-01 
464 1034.24 8.57676118e+00 2.57302835e-01 
463 1036.02 8.77051824e+00 2.63115547e-01 
462 1037.80 8.65025008e+00 2.59507502e-01 
461 1039.58 8.84748344e+00 2.65424503e-01 
460 1041.35 8.70086010e+00 2.61025803e-01 
459 1043.12 8.87202010e+00 2.66160603e-01 
458 1044.89 8.80125775e+00 2.64037732e-01 
457 1046.66 9.02720254e+00 2.70816076e-01 
456 1048.43 8.98069399e+00 2.69420820e-01 
455 1050.19 9.22673094e+00 2.76801928e-01 
454 1051.95 9.10181997e+00 2.73054599e-01 
453 1053.71 9.35581826e+00 2.80674548e-01 
452 1055.47 9.16871569e+00 2.75061471e-01 
451 1057.23 9.30088655e+00 2.79026596e-01 
450 1058.98 9.13600488e+00 2.74080146e-01 
449 1060.73 9.32460224e+00 2.79738067e-01 
448 1062.48 9.14623846e+00 2.74387154e-01 
447 1064.23 9.28693274e+00 2.78607982e-01 
446 1065.97 9.02855896e+00 2.70856769e-01 
445 1067.71 9.06086965e+00 2.71826090e-01 
444 1069.46 8.84899853e+00 2.65469956e-01 
443 1071.19 8.92501223e+00 2.67750367e-01 
442 1072.93 8.75520627e+00 2.62656188e-01 
441 1074.67 8.85749551e+00 2.65724865e-01 
440 1076.40 8.64372323e+00 2.59311697e-01 
439 1078.13 8.68219117e+00 2.60465735e-01 
438 1079.86 8.45302751e+00 2.53590825e-01 
437 1081.58 8.50734056e+00 2.55220217e-01 
436 1083.31 8.36291523e+00 2.50887457e-01 
435 1085.03 8.54380540e+00 2.56314162e-01 
434 1086.75 8.45784045e+00 2.53735214e-01 
433 1088.47 8.60382245e+00 2.58114674e-01 
432 1090.19 8.50307284e+00 2.55092185e-01 
431 1091.90 8.61390320e+00 2.58417096e-01 
430 1093.61 8.50573034e+00 2.55171910e-01 
429 1095.33 8.74780140e+00 2.62434042e-01 
428 1097.03 8.75971990e+00 2.62791597e-01 
427 1098.74 9.02149539e+00 2.70644862e-01 
426 1100.45 9.05493600e+00 2.71648080e-01 
425 1102.15 9.34145529e+00 2.80243659e-01 
424 1103.85 9.31431839e+00 2.79429552e-01 
423 1105.55 9.49877550e+00 2.84963265e-01 
422 1107.25 9.33124079e+00 2.79937224e-01 
421 1108.94 9.34593025e+00 2.80377908e-01 
420 1110.64 8.94684673e+00 2.68405402e-01 
419 1112.33 8.64627226e+00 2.59388168e-01 
418 1114.02 7.92965415e+00 2.37889625e-01 
417 1115.70 7.70930786e+00 2.31279236e-01 
416 1117.39 7.41789883e+00 2.22536965e-01 
415 1119.07 7.31343193e+00 2.19402958e-01 
414 1120.76 7.16404393e+00 2.14921318e-01 
413 1122.44 7.09633222e+00 2.12889967e-01 
412 1124.12 7.10990262e+00 2.13297079e-01 
411 1125.79 7.49635977e+00 2.24890793e-01 
410 1127.47 7.65623785e+00 2.29687136e-01 
409 1129.14 8.14822913e+00 2.44446874e-01 
408 1130.81 7.45494874e+00 2.23648462e-01 
407 1132.48 7.18250996e+00 2.15475299e-01 
406 1134.15 7.09908981e+00 2.12972694e-01 
405 1135.81 7.65443804e+00 2.29633141e-01 
404 1137.48 8.62642967e+00 2.58792890e-01 
403 1139.14 9.02351837e+00 2.70705551e-01 
402 1140.80 8.62864708e+00 2.58859412e-01 
401 1142.46 8.40674088e+00 2.52202226e-01 
400 1144.12 7.91708971e+00 2.37512691e-01 
399 1145.77 7.85100078e+00 2.35530023e-01 
398 1147.43 7.86662416e+00 2.35998725e-01 
397 1149.08 8.21049478e+00 2.46314844e-01 
396 1150.73 8.26866571e+00 2.48059971e-01 
395 1152.38 8.66207696e+00 2.59862309e-01 
394 1154.02 8.72640544e+00 2.61792163e-01 
393 1155.67 9.07096083e+00 2.72128825e-01 
392 1157.31 9.06031247e+00 2.71809374e-01 
391 1158.95 9.24563571e+00 2.77369071e-01 
390 1160.59 9.30094321e+00 2.79028296e-01 
389 1162.23 9.58321979e+00 2.87496594e-01 
388 1163.87 9.55286462e+00 2.86585939e-01 
387 1165.50 9.63021068e+00 2.88906320e-01 
386 1167.13 9.52738163e+00 2.85821449e-01 
385 1168.76 9.60533397e+00 2.88160019e-01 
384 1170.39 9.43242073e+00 2.82972622e-01 
383 1172.02 9.40039684e+00 2.82011905e-01 
382 1173.65 9.19772715e+00 2.75931815e-01 
381 1175.27 9.16069242e+00 2.74820772e-01 
380 1176.90 9.03904046e+00 2.71171214e-01 
379 1178.52 8.94480414e+00 2.68344124e-01 
378 1180.14 8.73683506e+00 2.62105052e-01 
377 1181.75 8.71294757e+00 2.61388427e-01 
376 1183.37 8.52974146e+00 2.55892244e-01 
375 1184.99 8.54575852e+00 2.56372756e-01 
374 1186.60 8.44280362e+00 2.53284109e-01 
373 1188.21 8.46363384e+00 2.53909015e-01 
372 1189.82 8.41468797e+00 2.52440639e-01 
371 1191.43 8.63154997e+00 2.58946499e-01 
370 1193.04 8.51935711e+00 2.55580713e-01 
369 1194.64 8.50720537e+00 2.55216161e-01 
368 1196.24 8.32975837e+00 2.49892751e-01 
367 1197.85 8.35850706e+00 2.50755212e-01 
366 1199.45 8.21778715e+00 2.46533614e-01 
365 1201.05 8.28882951e+00 2.48664885e-01 
364 1202.64 8.22618226e+00 2.46785468e-01 
363 1204.24 8.30772248e+00 2.49231674e-01 
362 1205.83 8.30144119e+00 2.49043236e-01 
361 1207.43 8.33153897e+00 2.49946169e-01 
360 1209.02 8.24835709e+00 2.47450713e-01 
359 1210.61 8.35859158e+00 2.50757747e-01 
358 1212.19 8.34732191e+00 2.50419657e-01 
357 1213.78 8.51719563e+00 2.55515869e-01 
356 1215.37 8.44236277e+00 2.53270883e-01 
355 1216.95 8.49646067e+00 2.54893820e-01 
354 1218.53 8.47036387e+00 2.54110916e-01 
353 1220.11 8.56223189e+00 2.56866957e-01 
352 1221.69 8.51564462e+00 2.55469338e-01 
351 1223.27 8.54629190e+00 2.56388757e-01 
350 1224.84 8.54565014e+00 2.56369504e-01 
349 1226.42 8.58134935e+00 2.57440481e-01 
348 1227.99 8.52891755e+00 2.55867526e-01 
347 1229.56 8.63344627e+00 2.59003388e-01 
346 1231.13 8.54233922e+00 2.56270177e-01 
345 1232.70 8.57617022e+00 2.57285107e-01 
344 1234.27 8.53173666e+00 2.55952100e-01 
343 1235.84 8.53604413e+00 2.56081324e-01 
342 1237.40 8.48856823e+00 2.54657047e-01 
341 1238.96 8.49868161e+00 2.54960448e-01 
340 1240.52 8.32940589e+00 2.49882177e-01 
339 1242.08 8.44551384e+00 2.53365415e-01 
338 1243.64 8.40014324e+00 2.52004297e-01 
337 1245.20 8.42979919e+00 2.52893976e-01 
336 1246.75 8.39060183e+00 2.51718055e-01 
335 1248.31 8.47152636e+00 2.54145791e-01 
334 1249.86 8.39954674e+00 2.51986402e-01 
333 1251.41 8.44130653e+00 2.53239196e-01 
332 1252.96 8.37527086e+00 2.51258126e-01 
331 1254.51 8.40703624e+00 2.52211087e-01 
330 1256.06 8.32589580e+00 2.49776874e-01 
329 1257.61 8.28681733e+00 2.48604520e-01 
328 1259.15 8.19321257e+00 2.45796377e-01 
327 1260.69 8.18606988e+00 2.45582096e-01 
326 1262.23 8.10985990e+00 2.43295797e-01 
325 1263.77 8.10818211e+00 2.43245463e-01 
324 1265.31 7.95779533e+00 2.38733860e-01 
323 1266.85 7.97104998e+00 2.39131499e-01 
322 1268.39 7.99394292e+00 2.39818288e-01 
321 1269.92 8.11208021e+00 2.43362406e-01 
320 1271.46 8.26072057e+00 2.47821617e-01 
319 1272.99 8.30280450e+00 2.49084135e-01 
318 1274.52 8.29360805e+00 2.48808242e-01 
317 1276.05 8.35883130e+00 2.50764939e-01 
316 1277.58 8.20912929e+00 2.46273879e-01 
315 1279.10 8.04709264e+00 2.41412779e-01 
314 1280.63 7.99437016e+00 2.39831105e-01 
313 1282.15 8.00553125e+00 2.40165938e-01 
312 1283.68 8.11970830e+00 2.43591249e-01 
311 1285.20 8.31729571e+00 2.49518871e-01 
310 1286.72 8.26993798e+00 2.48098139e-01 
309 1288.24 8.27918906e+00 2.48375672e-01 
308 1289.75 8.18793018e+00 2.45637906e-01 
307 1291.27 8.19909641e+00 2.45972892e-01 
306 1292.78 8.22363124e+00 2.46708937e-01 
305 1294.30 8.23248337e+00 2.46974501e-01 
304 1295.81 8.14135316e+00 2.44240595e-01 
303 1297.32 8.09445406e+00 2.42833622e-01 
302 1298.83 8.02073554e+00 2.40622066e-01 
301 1300.34 7.92126639e+00 2.37637992e-01 
300 1301.85 7.84165942e+00 2.35249783e-01 
299 1303.35 7.74851019e+00 2.32455306e-01 
298 1304.86 7.63745214e+00 2.29123564e-01 
297 1306.36 7.60588419e+00 2.28176526e-01 
296 1307.86 7.57671052e+00 2.27301316e-01 
295 1309.36 7.51750409e+00 2.25525123e-01 
294 1310.86 7.39758468e+00 2.21927540e-01 
293 1312.36 7.31556825e+00 2.19467047e-01 
292 1313.86 7.22232638e+00 2.16669792e-01 
291 1315.36 7.21308215e+00 2.16392464e-01 
290 1316.85 7.12887391e+00 2.13866217e-01 
289 1318.34 7.08301654e+00 2.12490496e-01 
288 1319.84 7.01632121e+00 2.10489636e-01 
287 1321.33 7.05553233e+00 2.11665970e-01 
286 1322.82 7.05315524e+00 2.11594657e-01 
285 1324.30 7.01258162e+00 2.10377449e-01 
284 1325.79 6.81270642e+00 2.04381193e-01 
283 1327.28 6.60558370e+00 1.98167511e-01 
282 1328.76 6.31307782e+00 1.89392335e-01 
281 1330.25 6.20255035e+00 1.86076511e-01 
280 1331.73 6.13006109e+00 1.83901833e-01 
279 1333.21 6.12589866e+00 1.83776960e-01 
278 1334.69 6.15814747e+00 1.84744424e-01 
277 1336.17 6.13516484e+00 1.84054945e-01 
276 1337.65 6.01942235e+00 1.80582671e-01 
275 1339.12 5.98405930e+00 1.79521779e-01 
274 1340.60 5.75049053e+00 1.72514716e-01 
273 1342.07 5.48324680e+00 1.64497404e-01 
272 1343.55 5.16700514e+00 1.55010154e-01 
271 1345.02 4.45719690e+00 1.33715907e-01 
270 1346.49 4.11762101e+00 1.23528630e-01 
269 1347.96 3.57729111e+00 1.07318733e-01 
268 1349.43 3.01139217e+00 9.03417650e-02 
267 1350.89 2.52715796e+00 7.58147387e-02 
266 1352.36 1.19337277e+00 3.58011832e-02 
265 1353.82 1.05662386e+00 3.16987158e-02 
264 1355.29 3.09734927e-01 9.29204782e-03 
263 1356.75 4.34500880e-01 1.30350264e-02 
262 1358.21 1.44513131e-01 4.33539394e-03 
261 1359.67 2.29743421e-01 6.89230264e-03 
260 1361.13 2.31093805e-01 6.93281415e-03 
259 1362.59 1.56475339e-01 4.69426016e-03 
258 1364.04 1.03625571e-01 3.10876713e-03 
257 1365.50 1.46602991e-01 4.39808973e-03 
256 1366.95 3.51187769e-01 1.05356331e-02 
255 1368.41 1.81507706e-01 5.44523118e-03 
254 1369.86 1.09295151e-01 3.27885453e-03 
253 1371.31 2.95609015e-01 8.86827044e-03 
252 1372.76 4.55451232e-01 1.36635370e-02 
251 1374.21 4.20302505e-01 1.26090752e-02 
250 1375.65 3.38715639e-01 1.01614692e-02 
249 1377.10 3.34058989e-01 1.00217697e-02 
248 1378.55 2.72170179e-01 8.16510538e-03 
247 1379.99 2.70213596e-01 8.10640789e-03 
246 1381.43 2.77336475e-01 8.32009425e-03 
245 1382.87 6.62913339e-02 1.98874002e-03 
244 1384.32 1.06154468e-01 3.18463405e-03 
243 1385.75 3.94876668e-01 1.18463000e-02 
242 1387.19 6.90017376e-01 2.07005213e-02 
241 1388.63 3.60008142e-01 1.08002443e-02 
240 1390.07 1.12278471e+00 3.36835412e-02 
239 1391.50 1.03953988e+00 3.11861964e-02 
238 1392.94 4.55047909e-01 1.36514373e-02 
237 1394.37 6.46798086e-01 1.94039426e-02 
236 1395.80 6.26352629e-01 1.87905789e-02 
235 1397.23 1.05002384e+00 3.15007151e-02 
234 1398.66 5.13143001e-01 1.53942900e-02 
233 1400.09 1.28694832e+00 3.86084497e-02 
232 1401.52 9.77490658e-01 2.93247197e-02 
231 1402.94 1.38319174e+00 4.14957523e-02 
230 1404.37 5.46398598e-01 1.63919579e-02 
229 1405.79 1.47086856e+00 4.41260569e-02 
228 1407.22 5.30549938e-01 1.59164981e-02 
227 1408.64 1.53891144e+00 4.61673431e-02 
226 1410.06 9.00107266e-01 2.70032180e-02 
225 1411.48 1.62525167e+00 4.87575501e-02 
224 1412.90 1.08282085e+00 3.24846254e-02 
223 1414.32 2.04051365e+00 6.12154095e-02 
222 1415.73 2.02503992e+00 6.07511977e-02 
221 1417.15 2.12133489e+00 6.36400467e-02 
220 1418.56 2.34847931e+00 7.04543794e-02 
219 1419.98 2.25297655e+00 6.75892964e-02 
218 1421.39 2.43026994e+00 7.29080981e-02 
217 1422.80 2.74747865e+00 8.24243595e-02 
216 1424.21 2.76354880e+00 8.29064641e-02 
215 1425.62 2.68669460e+00 8.06008380e-02 
214 1427.03 2.77753413e+00 8.33260240e-02 
213 1428.44 2.61438534e+00 7.84315601e-02 
212 1429.84 2.49279056e+00 7.47837167e-02 
211 1431.25 2.61434986e+00 7.84304958e-02 
210 1432.65 2.62696498e+00 7.88089493e-02 
209 1434.06 2.71160117e+00 8.13480350e-02 
208 1435.46 2.78122331e+00 8.34366993e-02 
207 1436.86 2.87125291e+00 8.61375873e-02 
206 1438.26 2.90325516e+00 8.70976548e-02 
205 1439.66 3.03678213e+00 9.11034638e-02 
204 1441.05 3.27287444e+00 9.81862331e-02 
203 1442.45 3.20036379e+00 9.60109136e-02 
202 1443.85 3.14574749e+00 9.43724248e-02 
201 1445.24 3.22552165e+00 9.67656494e-02 
200 1446.64 3.18595614e+00 9.55786842e-02 
199 1448.03 3.03720748e+00 9.11162245e-02 
198 1449.42 3.17105139e+00 9.51315418e-02 
197 1450.81 3.22058682e+00 9.66176045e-02 
196 1452.20 3.32155819e+00 9.96467456e-02 
195 1453.59 3.72595129e+00 1.11778539e-01 
194 1454.97 3.99868886e+00 1.19960666e-01 
193 1456.36 4.02969705e+00 1.20890911e-01 
192 1457.75 4.08000548e+00 1.22400164e-01 
191 1459.13 3.99117534e+00 1.19735260e-01 
190 1460.51 3.86917051e+00 1.16075115e-01 
189 1461.90 3.67864520e+00 1.10359356e-01 
188 1463.28 3.55558086e+00 1.06667426e-01 
187 1464.66 3.41100888e+00 1.02330266e-01 
186 1466.04 3.43488402e+00 1.03046521e-01 
185 1467.41 3.24322382e+00 9.72967146e-02 
184 1468.79 3.18485232e+00 9.55455696e-02 
183 1470.17 3.12381108e+00 9.37143325e-02 
182 1471.54 3.10677600e+00 9.32032800e-02 
181 1472.92 3.23532543e+00 9.70597628e-02 
180 1474.29 3.42390720e+00 1.02717216e-01 
179 1475.66 3.46292707e+00 1.03887812e-01 
178 1477.03 3.37353640e+00 1.01206092e-01 
177 1478.40 3.32663143e+00 9.97989429e-02 
176 1479.77 3.41140809e+00 1.02342243e-01 
175 1481.14 3.45062899e+00 1.03518870e-01 
174 1482.51 3.58841400e+00 1.07652420e-01 
173 1483.87 3.60636790e+00 1.08191037e-01 
172 1485.24 3.59295925e+00 1.07788777e-01 
171 1486.60 3.57156217e+00 1.07146865e-01 
170 1487.96 3.65371560e+00 1.09611468e-01 
169 1489.32 3.70196340e+00 1.11058902e-01 
168 1490.69 3.89486716e+00 1.16846015e-01 
167 1492.04 3.92323911e+00 1.17697173e-01 
166 1493.40 3.96277541e+00 1.18883262e-01 
165 1494.76 3.96320699e+00 1.18896210e-01 
164 1496.12 4.01947464e+00 1.20584239e-01 
163 1497.47 4.02118939e+00 1.20635682e-01 
162 1498.83 4.11616116e+00 1.23484835e-01 
161 1500.18 3.96809992e+00 1.19042998e-01 
160 1501.53 3.88561465e+00 1.16568439e-01 
159 1502.89 3.77788440e+00 1.13336532e-01 
158 1504.24 3.80990716e+00 1.14297215e-01 
157 1505.59 3.84814739e+00 1.15444422e-01 
156 1506.93 4.00325915e+00 1.20097775e-01 
155 1508.28 4.05626761e+00 1.21688028e-01 
154 1509.63 4.09500474e+00 1.22850142e-01 
153 1510.97 4.06970045e+00 1.22091014e-01 
152 1512.32 4.14018016e+00 1.24205405e-01 
151 1513.66 4.06405318e+00 1.21921595e-01 
150 1515.00 4.08985007e+00 1.22695502e-01 
149 1516.34 4.06296541e+00 1.21888962e-01 
148 1517.69 4.09857758e+00 1.22957327e-01 
147 1519.02 4.04900864e+00 1.21470259e-01 
146 1520.36 4.06626384e+00 1.21987915e-01 
145 1521.70 4.01446669e+00 1.20434001e-01 
144 1523.04 4.08724764e+00 1.22617429e-01 
143 1524.37 4.04528952e+00 1.21358686e-01 
142 1525.71 4.08073216e+00 1.22421965e-01 
141 1527.04 4.01537023e+00 1.20461107e-01 
140 1528.37 4.02794126e+00 1.20838238e-01 
139 1529.70 3.95263282e+00 1.18578985e-01 
138 1531.03 3.98341074e+00 1.19502322e-01 
137 1532.36 3.92850493e+00 1.17855148e-01 
136 1533.69 3.96500285e+00 1.18950086e-01 
135 1535.02 3.87919321e+00 1.16375796e-01 
134 1536.34 3.90776943e+00 1.17233083e-01 
133 1537.67 3.82190805e+00 1.14657241e-01 
132 1538.99 3.85307471e+00 1.15592241e-01 
131 1540.31 3.79278476e+00 1.13783543e-01 
130 1541.64 3.83565975e+00 1.15069793e-01 
129 1542.96 3.81042539e+00 1.14312762e-01 
128 1544.28 3.86035367e+00 1.15810610e-01 
127 1545.60 3.79419890e+00 1.13825967e-01 
126 1546.91 3.84407653e+00 1.15322296e-01 
125 1548.23 3.75008320e+00 1.12502496e-01 
124 1549.55 3.77522193e+00 1.13256658e-01 
123 1550.86 3.67906080e+00 1.10371824e-01 
122 1552.18 3.69071554e+00 1.10721466e-01 
121 1553.49 3.62536707e+00 1.08761012e-01 
120 1554.80 3.68363558e+00 1.10509067e-01 
119 1556.11 3.61338060e+00 1.08401418e-01 
118 1557.42 3.65487750e+00 1.09646325e-01 
117 1558.73 3.58100162e+00 1.07430048e-01 
116 1560.04 3.59025978e+00 1.07707793e-01 
115 1561.34 3.50286976e+00 1.05086093e-01 
114 1562.65 3.54276056e+00 1.06282817e-01 
113 1563.95 3.45982233e+00 1.03794670e-01 
112 1565.26 3.51112256e+00 1.05333677e-01 
111 1566.56 3.39743645e+00 1.01923093e-01 
110 1567.86 3.41412306e+00 1.02423692e-01 
109 1569.16 3.32349033e+00 9.97047099e-02 
108 1570.46 3.34520761e+00 1.00356228e-01 
107 1571.76 3.26166456e+00 9.78499368e-02 
106 1573.05 3.25254162e+00 9.75762486e-02 
105 1574.35 3.14543423e+00 9.43630268e-02 
104 1575.64 3.16921094e+00 9.50763281e-02 
103 1576.94 3.13173726e+00 9.39521178e-02 
102 1578.23 3.19063988e+00 9.57191963e-02 
101 1579.52 3.15378223e+00 9.46134670e-02 
100 1580.81 3.20614154e+00 9.61842461e-02 
99 1582.10 3.13249671e+00 9.39749013e-02 
98 1583.39 3.18369864e+00 9.55109593e-02 
97 1584.68 3.10427101e+00 9.31281304e-02 
96 1585.97 3.10445714e+00 9.31337143e-02 
95 1587.25 3.00472379e+00 9.01417136e-02 
94 1588.54 3.02524155e+00 9.07572465e-02 
93 1589.82 2.97785642e+00 8.93356927e-02 
92 1591.10 3.07279630e+00 9.21838889e-02 
91 1592.38 3.03272144e+00 9.09816432e-02 
90 1593.66 3.09559864e+00 9.28679593e-02 
89 1594.94 3.01297916e+00 9.03893747e-02 
88 1596.22 3.04735951e+00 9.14207852e-02 
87 1597.50 2.96341152e+00 8.89023457e-02 
86 1598.77 2.99567942e+00 8.98703827e-02 
85 1600.05 2.90476518e+00 8.71429553e-02 
84 1601.32 2.92109118e+00 8.76327353e-02 
83 1602.59 2.82704768e+00 8.48114304e-02 
82 1603.86 2.87327830e+00 8.61983490e-02 
81 1605.13 2.75381551e+00 8.26144653e-02 
80 1606.40 2.80443119e+00 8.41329358e-02 
79 1607.67 2.70949423e+00 8.12848269e-02 
78 1608.94 2.75240303e+00 8.25720909e-02 
77 1610.20 2.70530571e+00 8.11591714e-02 
76 1611.47 2.77474563e+00 8.32423689e-02 
75 1612.73 2.71591541e+00 8.14774624e-02 
74 1614.00 2.77479661e+00 8.32438982e-02 
73 1615.26 2.70502449e+00 8.11507348e-02 
72 1616.52 2.73102533e+00 8.19307598e-02 
71 1617.78 2.62893195e+00 7.88679585e-02 
70 1619.03 2.66191611e+00 7.98574832e-02 
69 1620.29 2.58583883e+00 7.75751650e-02 
68 1621.55 2.64597062e+00 7.93791187e-02 
67 1622.80 2.57024423e+00 7.71073268e-02 
66 1624.06 2.64156470e+00 7.92469411e-02 
65 1625.31 2.54616234e+00 7.63848703e-02 
64 1626.56 2.59763068e+00 7.79289203e-02 
63 1627.81 2.50598921e+00 7.51796762e-02 
62 1629.06 2.51726664e+00 7.55179992e-02 
61 1630.31 2.42456620e+00 7.27369861e-02 
60 1631.56 2.44121244e+00 7.32363732e-02 
59 1632.80 2.34823776e+00 7.04471328e-02 
58 1634.05 2.37811187e+00 7.13433560e-02 
57 1635.29 2.26537391e+00 6.79612172e-02 
56 1636.53 2.27424164e+00 6.82272493e-02 
55 1637.77 2.16054776e+00 6.48164327e-02 
54 1639.01 2.18627347e+00 6.55882042e-02 
53 1640.25 2.12189470e+00 6.36568411e-02 
52 1641.49 2.13602479e+00 6.40807436e-02 
51 1642.73 2.07285480e+00 6.21856439e-02 
