% C0 (TOA Count Rate, /ms) for 4STAR NIR spectrometer (512 channels) derived from 20160117starsun.mat and recorded on 2016-01-18 11:03:37.
% Data outside 2.0x the STD of 501 nm Langley residuals were screened out.
Pix Wavelength C0 C0err
511 949.79 3.85345619e+00 1.15603686e-01 
510 949.79 4.55665980e+00 1.36699794e-01 
509 951.68 4.91917547e+00 1.47575264e-01 
508 953.57 4.99780784e+00 1.49934235e-01 
507 955.46 5.42850597e+00 1.62855179e-01 
506 957.34 5.56161370e+00 1.66848411e-01 
505 959.22 6.06523673e+00 1.81957102e-01 
504 961.10 6.21045530e+00 1.86313659e-01 
503 962.98 6.70305510e+00 2.01091653e-01 
502 964.85 6.78877471e+00 2.03663241e-01 
501 966.72 7.37611333e+00 2.21283400e-01 
500 968.59 7.50015894e+00 2.25004768e-01 
499 970.45 7.90239359e+00 2.37071808e-01 
498 972.32 7.83847654e+00 2.35154296e-01 
497 974.18 8.15846874e+00 2.44754062e-01 
496 976.04 8.10245670e+00 2.43073701e-01 
495 977.89 8.45388834e+00 2.53616650e-01 
494 979.74 8.44396621e+00 2.53318986e-01 
493 981.59 8.73566552e+00 2.62069966e-01 
492 983.44 8.66560275e+00 2.59968082e-01 
491 985.29 8.92693515e+00 2.67808055e-01 
490 987.13 8.75684879e+00 2.62705464e-01 
489 988.97 8.99629319e+00 2.69888796e-01 
488 990.81 8.80473560e+00 2.64142068e-01 
487 992.65 8.95652279e+00 2.68695684e-01 
486 994.48 8.77673451e+00 2.63302035e-01 
485 996.31 8.94808051e+00 2.68442415e-01 
484 998.14 8.69176842e+00 2.60753053e-01 
483 999.97 8.83114051e+00 2.64934215e-01 
482 1001.79 8.57249605e+00 2.57174881e-01 
481 1003.62 8.62668199e+00 2.58800460e-01 
480 1005.44 8.44580778e+00 2.53374233e-01 
479 1007.25 8.66761526e+00 2.60028458e-01 
478 1009.07 8.49173996e+00 2.54752199e-01 
477 1010.88 8.67747389e+00 2.60324217e-01 
476 1012.69 8.43354445e+00 2.53006333e-01 
475 1014.50 8.56330613e+00 2.56899184e-01 
474 1016.31 8.33881971e+00 2.50164591e-01 
473 1018.11 8.48425272e+00 2.54527581e-01 
472 1019.91 8.24209198e+00 2.47262759e-01 
471 1021.71 8.36954299e+00 2.51086290e-01 
470 1023.51 8.15809000e+00 2.44742700e-01 
469 1025.30 8.30702955e+00 2.49210886e-01 
468 1027.09 8.21684294e+00 2.46505288e-01 
467 1028.88 8.35208624e+00 2.50562587e-01 
466 1030.67 8.20909513e+00 2.46272854e-01 
465 1032.46 8.39530744e+00 2.51859223e-01 
464 1034.24 8.24669335e+00 2.47400800e-01 
463 1036.02 8.43117771e+00 2.52935331e-01 
462 1037.80 8.30847152e+00 2.49254146e-01 
461 1039.58 8.51760296e+00 2.55528089e-01 
460 1041.35 8.38527325e+00 2.51558197e-01 
459 1043.12 8.52359996e+00 2.55707999e-01 
458 1044.89 8.45109255e+00 2.53532777e-01 
457 1046.66 8.66264068e+00 2.59879220e-01 
456 1048.43 8.59855009e+00 2.57956503e-01 
455 1050.19 8.79212564e+00 2.63763769e-01 
454 1051.95 8.67347564e+00 2.60204269e-01 
453 1053.71 8.92322889e+00 2.67696867e-01 
452 1055.47 8.78297230e+00 2.63489169e-01 
451 1057.23 8.90320246e+00 2.67096074e-01 
450 1058.98 8.79898611e+00 2.63969583e-01 
449 1060.73 8.94749659e+00 2.68424898e-01 
448 1062.48 8.78993582e+00 2.63698074e-01 
447 1064.23 8.93490452e+00 2.68047136e-01 
446 1065.97 8.69442355e+00 2.60832707e-01 
445 1067.71 8.71052583e+00 2.61315775e-01 
444 1069.46 8.50035662e+00 2.55010699e-01 
443 1071.19 8.58937855e+00 2.57681356e-01 
442 1072.93 8.43802174e+00 2.53140652e-01 
441 1074.67 8.51909496e+00 2.55572849e-01 
440 1076.40 8.32954403e+00 2.49886321e-01 
439 1078.13 8.36456957e+00 2.50937087e-01 
438 1079.86 8.14133860e+00 2.44240158e-01 
437 1081.58 8.18858465e+00 2.45657540e-01 
436 1083.31 8.11192250e+00 2.43357675e-01 
435 1085.03 8.27400220e+00 2.48220066e-01 
434 1086.75 8.18728571e+00 2.45618571e-01 
433 1088.47 8.30695137e+00 2.49208541e-01 
432 1090.19 8.18683760e+00 2.45605128e-01 
431 1091.90 8.26767843e+00 2.48030353e-01 
430 1093.61 8.12029664e+00 2.43608899e-01 
429 1095.33 8.31096504e+00 2.49328951e-01 
428 1097.03 8.31327946e+00 2.49398384e-01 
427 1098.74 8.52319314e+00 2.55695794e-01 
426 1100.45 8.53537119e+00 2.56061136e-01 
425 1102.15 8.78749940e+00 2.63624982e-01 
424 1103.85 8.75201243e+00 2.62560373e-01 
423 1105.55 8.92766079e+00 2.67829824e-01 
422 1107.25 8.78104285e+00 2.63431286e-01 
421 1108.94 8.76011468e+00 2.62803440e-01 
420 1110.64 8.37097747e+00 2.51129324e-01 
419 1112.33 8.06297691e+00 2.41889307e-01 
418 1114.02 7.35041488e+00 2.20512446e-01 
417 1115.70 7.10249627e+00 2.13074888e-01 
416 1117.39 6.78547921e+00 2.03564376e-01 
415 1119.07 6.63293402e+00 1.98988021e-01 
414 1120.76 6.42669388e+00 1.92800816e-01 
413 1122.44 6.31786774e+00 1.89536032e-01 
412 1124.12 6.27999231e+00 1.88399769e-01 
411 1125.79 6.57725610e+00 1.97317683e-01 
410 1127.47 6.85672984e+00 2.05701895e-01 
409 1129.14 7.38719022e+00 2.21615707e-01 
408 1130.81 6.78499525e+00 2.03549857e-01 
407 1132.48 6.51760333e+00 1.95528100e-01 
406 1134.15 6.43484095e+00 1.93045229e-01 
405 1135.81 6.96995274e+00 2.09098582e-01 
404 1137.48 7.87871760e+00 2.36361528e-01 
403 1139.14 8.28000869e+00 2.48400261e-01 
402 1140.80 7.91969581e+00 2.37590874e-01 
401 1142.46 7.64290926e+00 2.29287278e-01 
400 1144.12 7.22487884e+00 2.16746365e-01 
399 1145.77 7.17457434e+00 2.15237230e-01 
398 1147.43 7.24549326e+00 2.17364798e-01 
397 1149.08 7.60057870e+00 2.28017361e-01 
396 1150.73 7.63389231e+00 2.29016769e-01 
395 1152.38 7.99536126e+00 2.39860838e-01 
394 1154.02 8.09541409e+00 2.42862423e-01 
393 1155.67 8.46146369e+00 2.53843911e-01 
392 1157.31 8.47881537e+00 2.54364461e-01 
391 1158.95 8.67995920e+00 2.60398776e-01 
390 1160.59 8.76800611e+00 2.63040183e-01 
389 1162.23 9.02012826e+00 2.70603848e-01 
388 1163.87 9.00906839e+00 2.70272052e-01 
387 1165.50 9.09262592e+00 2.72778777e-01 
386 1167.13 9.00408482e+00 2.70122545e-01 
385 1168.76 9.13493865e+00 2.74048159e-01 
384 1170.39 8.98501580e+00 2.69550474e-01 
383 1172.02 8.94535591e+00 2.68360677e-01 
382 1173.65 8.78077843e+00 2.63423353e-01 
381 1175.27 8.76032782e+00 2.62809835e-01 
380 1176.90 8.65523669e+00 2.59657101e-01 
379 1178.52 8.56505703e+00 2.56951711e-01 
378 1180.14 8.34041232e+00 2.50212370e-01 
377 1181.75 8.29435398e+00 2.48830620e-01 
376 1183.37 8.11018131e+00 2.43305439e-01 
375 1184.99 8.13443368e+00 2.44033010e-01 
374 1186.60 8.04703670e+00 2.41411101e-01 
373 1188.21 8.02494196e+00 2.40748259e-01 
372 1189.82 8.00531653e+00 2.40159496e-01 
371 1191.43 8.22676497e+00 2.46802949e-01 
370 1193.04 8.15313302e+00 2.44593991e-01 
369 1194.64 8.10018930e+00 2.43005679e-01 
368 1196.24 7.90908075e+00 2.37272423e-01 
367 1197.85 7.96228083e+00 2.38868425e-01 
366 1199.45 7.84950846e+00 2.35485254e-01 
365 1201.05 7.89195913e+00 2.36758774e-01 
364 1202.64 7.83083976e+00 2.34925193e-01 
363 1204.24 7.87529562e+00 2.36258869e-01 
362 1205.83 7.85998295e+00 2.35799488e-01 
361 1207.43 7.86460435e+00 2.35938131e-01 
360 1209.02 7.82408516e+00 2.34722555e-01 
359 1210.61 7.95863317e+00 2.38758995e-01 
358 1212.19 7.97952820e+00 2.39385846e-01 
357 1213.78 8.13467973e+00 2.44040392e-01 
356 1215.37 8.11471166e+00 2.43441350e-01 
355 1216.95 8.16831859e+00 2.45049558e-01 
354 1218.53 8.13802917e+00 2.44140875e-01 
353 1220.11 8.19543600e+00 2.45863080e-01 
352 1221.69 8.17664897e+00 2.45299469e-01 
351 1223.27 8.20641761e+00 2.46192528e-01 
350 1224.84 8.21478664e+00 2.46443599e-01 
349 1226.42 8.27371970e+00 2.48211591e-01 
348 1227.99 8.27546163e+00 2.48263849e-01 
347 1229.56 8.37500860e+00 2.51250258e-01 
346 1231.13 8.30926283e+00 2.49277885e-01 
345 1232.70 8.40404476e+00 2.52121343e-01 
344 1234.27 8.39043289e+00 2.51712987e-01 
343 1235.84 8.40092022e+00 2.52027607e-01 
342 1237.40 8.33904964e+00 2.50171489e-01 
341 1238.96 8.31393968e+00 2.49418191e-01 
340 1240.52 8.14730154e+00 2.44419046e-01 
339 1242.08 8.25660779e+00 2.47698234e-01 
338 1243.64 8.25125293e+00 2.47537588e-01 
337 1245.20 8.30527827e+00 2.49158348e-01 
336 1246.75 8.27844281e+00 2.48353284e-01 
335 1248.31 8.34227061e+00 2.50268118e-01 
334 1249.86 8.29163276e+00 2.48748983e-01 
333 1251.41 8.33979608e+00 2.50193883e-01 
332 1252.96 8.29373026e+00 2.48811908e-01 
331 1254.51 8.28275436e+00 2.48482631e-01 
330 1256.06 8.19914615e+00 2.45974385e-01 
329 1257.61 8.14513265e+00 2.44353980e-01 
328 1259.15 8.01123080e+00 2.40336924e-01 
327 1260.69 7.92817815e+00 2.37845344e-01 
326 1262.23 7.76226217e+00 2.32867865e-01 
325 1263.77 7.67707568e+00 2.30312270e-01 
324 1265.31 7.46028561e+00 2.23808568e-01 
323 1266.85 7.45914544e+00 2.23774363e-01 
322 1268.39 7.53830807e+00 2.26149242e-01 
321 1269.92 7.68150241e+00 2.30445072e-01 
320 1271.46 7.96342230e+00 2.38902669e-01 
319 1272.99 8.05323492e+00 2.41597047e-01 
318 1274.52 8.04062808e+00 2.41218843e-01 
317 1276.05 8.09020464e+00 2.42706139e-01 
316 1277.58 7.96101535e+00 2.38830461e-01 
315 1279.10 7.80212216e+00 2.34063665e-01 
314 1280.63 7.76795026e+00 2.33038508e-01 
313 1282.15 7.75350158e+00 2.32605047e-01 
312 1283.68 7.85048916e+00 2.35514675e-01 
311 1285.20 8.03501388e+00 2.41050416e-01 
310 1286.72 8.01843150e+00 2.40552945e-01 
309 1288.24 8.01412277e+00 2.40423683e-01 
308 1289.75 7.95049230e+00 2.38514769e-01 
307 1291.27 7.95467478e+00 2.38640243e-01 
306 1292.78 8.00337501e+00 2.40101250e-01 
305 1294.30 7.99588176e+00 2.39876453e-01 
304 1295.81 7.91029536e+00 2.37308861e-01 
303 1297.32 7.87207112e+00 2.36162134e-01 
302 1298.83 7.80549165e+00 2.34164749e-01 
301 1300.34 7.70541957e+00 2.31162587e-01 
300 1301.85 7.61203861e+00 2.28361158e-01 
299 1303.35 7.52413704e+00 2.25724111e-01 
298 1304.86 7.42201275e+00 2.22660382e-01 
297 1306.36 7.38529940e+00 2.21558982e-01 
296 1307.86 7.32646771e+00 2.19794031e-01 
295 1309.36 7.22741323e+00 2.16822397e-01 
294 1310.86 7.07772920e+00 2.12331876e-01 
293 1312.36 6.97083111e+00 2.09124933e-01 
292 1313.86 6.95000781e+00 2.08500234e-01 
291 1315.36 6.94984086e+00 2.08495226e-01 
290 1316.85 6.90843567e+00 2.07253070e-01 
289 1318.34 6.87253268e+00 2.06175980e-01 
288 1319.84 6.76005299e+00 2.02801590e-01 
287 1321.33 6.74303792e+00 2.02291138e-01 
286 1322.82 6.70394065e+00 2.01118219e-01 
285 1324.30 6.62022733e+00 1.98606820e-01 
284 1325.79 6.44090086e+00 1.93227026e-01 
283 1327.28 6.20650875e+00 1.86195263e-01 
282 1328.76 5.89443345e+00 1.76833004e-01 
281 1330.25 5.73051904e+00 1.71915571e-01 
280 1331.73 5.67900822e+00 1.70370247e-01 
279 1333.21 5.68219712e+00 1.70465914e-01 
278 1334.69 5.71666472e+00 1.71499942e-01 
277 1336.17 5.68361781e+00 1.70508534e-01 
276 1337.65 5.58620569e+00 1.67586171e-01 
275 1339.12 5.55625405e+00 1.66687621e-01 
274 1340.60 5.37709162e+00 1.61312749e-01 
273 1342.07 5.12734062e+00 1.53820218e-01 
272 1343.55 4.82002789e+00 1.44600837e-01 
271 1345.02 4.10699140e+00 1.23209742e-01 
270 1346.49 3.73354080e+00 1.12006224e-01 
269 1347.96 3.16681297e+00 9.50043890e-02 
268 1349.43 2.62832754e+00 7.88498261e-02 
267 1350.89 2.14208435e+00 6.42625305e-02 
266 1352.36 1.52474861e+00 4.57424582e-02 
265 1353.82 1.17734958e+00 3.53204875e-02 
264 1355.29 2.89753458e-01 8.69260374e-03 
263 1356.75 4.24042914e-01 1.27212874e-02 
262 1358.21 1.04575144e-01 3.13725431e-03 
261 1359.67 2.13640892e-01 6.40922677e-03 
260 1361.13 2.02589101e-01 6.07767304e-03 
259 1362.59 1.37896709e-01 4.13690127e-03 
258 1364.04 8.72472259e-02 2.61741678e-03 
257 1365.50 1.92523123e-01 5.77569370e-03 
256 1366.95 3.23445371e-01 9.70336112e-03 
255 1368.41 1.54947057e-01 4.64841172e-03 
254 1369.86 8.14572030e-02 2.44371609e-03 
253 1371.31 3.60130564e-01 1.08039169e-02 
252 1372.76 4.28449556e-01 1.28534867e-02 
251 1374.21 8.05559265e-01 2.41667779e-02 
250 1375.65 2.81168405e-01 8.43505216e-03 
249 1377.10 4.56523435e-01 1.36957030e-02 
248 1378.55 2.47671471e-01 7.43014412e-03 
247 1379.99 3.32937235e-01 9.98811704e-03 
246 1381.43 2.51068262e-01 7.53204787e-03 
245 1382.87 7.77830927e-02 2.33349278e-03 
244 1384.32 8.30292369e-02 2.49087711e-03 
243 1385.75 5.16833216e-01 1.55049965e-02 
242 1387.19 8.45281524e-01 2.53584457e-02 
241 1388.63 3.22311924e-01 9.66935772e-03 
240 1390.07 1.20747605e+00 3.62242816e-02 
239 1391.50 1.01825455e+00 3.05476364e-02 
238 1392.94 4.27756312e-01 1.28326894e-02 
237 1394.37 7.84040282e-01 2.35212084e-02 
236 1395.80 8.44658876e-01 2.53397663e-02 
235 1397.23 8.32037142e-01 2.49611143e-02 
234 1398.66 4.90180120e-01 1.47054036e-02 
233 1400.09 1.08366414e+00 3.25099243e-02 
232 1401.52 9.48432472e-01 2.84529742e-02 
231 1402.94 1.06405294e+00 3.19215883e-02 
230 1404.37 5.91812682e-01 1.77543805e-02 
229 1405.79 1.21948032e+00 3.65844095e-02 
228 1407.22 6.05171564e-01 1.81551469e-02 
227 1408.64 1.30989990e+00 3.92969971e-02 
226 1410.06 1.23862234e+00 3.71586702e-02 
225 1411.48 1.39823606e+00 4.19470819e-02 
224 1412.90 1.37996650e+00 4.13989951e-02 
223 1414.32 1.79774823e+00 5.39324469e-02 
222 1415.73 1.69052111e+00 5.07156332e-02 
221 1417.15 1.76560977e+00 5.29682931e-02 
220 1418.56 1.93650983e+00 5.80952948e-02 
219 1419.98 1.89660642e+00 5.68981925e-02 
218 1421.39 2.10339407e+00 6.31018221e-02 
217 1422.80 2.35785815e+00 7.07357444e-02 
216 1424.21 2.39816980e+00 7.19450939e-02 
215 1425.62 2.33788833e+00 7.01366499e-02 
214 1427.03 2.47149338e+00 7.41448014e-02 
213 1428.44 2.28505340e+00 6.85516021e-02 
212 1429.84 2.17991911e+00 6.53975734e-02 
211 1431.25 2.22168372e+00 6.66505115e-02 
210 1432.65 2.21907415e+00 6.65722246e-02 
209 1434.06 2.26957766e+00 6.80873297e-02 
208 1435.46 2.41195456e+00 7.23586368e-02 
207 1436.86 2.51367437e+00 7.54102310e-02 
206 1438.26 2.51699176e+00 7.55097527e-02 
205 1439.66 2.60867389e+00 7.82602168e-02 
204 1441.05 2.85166817e+00 8.55500452e-02 
203 1442.45 2.74261839e+00 8.22785516e-02 
202 1443.85 2.74668727e+00 8.24006180e-02 
201 1445.24 2.87292648e+00 8.61877943e-02 
200 1446.64 2.87812260e+00 8.63436779e-02 
199 1448.03 2.77092576e+00 8.31277727e-02 
198 1449.42 2.88426947e+00 8.65280841e-02 
197 1450.81 2.92571086e+00 8.77713257e-02 
196 1452.20 3.02904291e+00 9.08712873e-02 
195 1453.59 3.38127406e+00 1.01438222e-01 
194 1454.97 3.69745808e+00 1.10923742e-01 
193 1456.36 3.74129750e+00 1.12238925e-01 
192 1457.75 3.80855663e+00 1.14256699e-01 
191 1459.13 3.71663896e+00 1.11499169e-01 
190 1460.51 3.64086534e+00 1.09225960e-01 
189 1461.90 3.44737022e+00 1.03421107e-01 
188 1463.28 3.34136120e+00 1.00240836e-01 
187 1464.66 3.21475606e+00 9.64426818e-02 
186 1466.04 3.25517402e+00 9.76552205e-02 
185 1467.41 3.05185891e+00 9.15557672e-02 
184 1468.79 2.97301756e+00 8.91905267e-02 
183 1470.17 2.89703015e+00 8.69109046e-02 
182 1471.54 2.93469083e+00 8.80407249e-02 
181 1472.92 3.06903684e+00 9.20711051e-02 
180 1474.29 3.26492526e+00 9.79477577e-02 
179 1475.66 3.31883456e+00 9.95650367e-02 
178 1477.03 3.21762495e+00 9.65287485e-02 
177 1478.40 3.17701786e+00 9.53105358e-02 
176 1479.77 3.29466881e+00 9.88400644e-02 
175 1481.14 3.36289589e+00 1.00886877e-01 
174 1482.51 3.53345727e+00 1.06003718e-01 
173 1483.87 3.52101505e+00 1.05630452e-01 
172 1485.24 3.51190650e+00 1.05357195e-01 
171 1486.60 3.49733324e+00 1.04919997e-01 
170 1487.96 3.60492640e+00 1.08147792e-01 
169 1489.32 3.67465463e+00 1.10239639e-01 
168 1490.69 3.87461440e+00 1.16238432e-01 
167 1492.04 3.91092113e+00 1.17327634e-01 
166 1493.40 3.96774680e+00 1.19032404e-01 
165 1494.76 3.96202150e+00 1.18860645e-01 
164 1496.12 4.00446467e+00 1.20133940e-01 
163 1497.47 4.00745061e+00 1.20223518e-01 
162 1498.83 4.09515279e+00 1.22854584e-01 
161 1500.18 3.94124140e+00 1.18237242e-01 
160 1501.53 3.85687501e+00 1.15706250e-01 
159 1502.89 3.75813283e+00 1.12743985e-01 
158 1504.24 3.79415425e+00 1.13824628e-01 
157 1505.59 3.82492467e+00 1.14747740e-01 
156 1506.93 3.98115678e+00 1.19434703e-01 
155 1508.28 4.03378712e+00 1.21013614e-01 
154 1509.63 4.09272454e+00 1.22781736e-01 
153 1510.97 4.07943357e+00 1.22383007e-01 
152 1512.32 4.17094790e+00 1.25128437e-01 
151 1513.66 4.09095113e+00 1.22728534e-01 
150 1515.00 4.14577988e+00 1.24373396e-01 
149 1516.34 4.09878906e+00 1.22963672e-01 
148 1517.69 4.11151773e+00 1.23345532e-01 
147 1519.02 4.04039391e+00 1.21211817e-01 
146 1520.36 4.04961360e+00 1.21488408e-01 
145 1521.70 4.00040651e+00 1.20012195e-01 
144 1523.04 4.07388950e+00 1.22216685e-01 
143 1524.37 4.03430464e+00 1.21029139e-01 
142 1525.71 4.09641287e+00 1.22892386e-01 
141 1527.04 4.02859912e+00 1.20857973e-01 
140 1528.37 4.04886076e+00 1.21465823e-01 
139 1529.70 3.95958706e+00 1.18787612e-01 
138 1531.03 3.99747586e+00 1.19924276e-01 
137 1532.36 3.93708814e+00 1.18112644e-01 
136 1533.69 3.98760057e+00 1.19628017e-01 
135 1535.02 3.89883257e+00 1.16964977e-01 
134 1536.34 3.95575954e+00 1.18672786e-01 
133 1537.67 3.89130705e+00 1.16739212e-01 
132 1538.99 3.95044537e+00 1.18513361e-01 
131 1540.31 3.89131047e+00 1.16739314e-01 
130 1541.64 3.94070438e+00 1.18221131e-01 
129 1542.96 3.90030759e+00 1.17009228e-01 
128 1544.28 3.93476525e+00 1.18042958e-01 
127 1545.60 3.85610160e+00 1.15683048e-01 
126 1546.91 3.89687123e+00 1.16906137e-01 
125 1548.23 3.81166858e+00 1.14350057e-01 
124 1549.55 3.86212024e+00 1.15863607e-01 
123 1550.86 3.77957455e+00 1.13387237e-01 
122 1552.18 3.81702790e+00 1.14510837e-01 
121 1553.49 3.75967266e+00 1.12790180e-01 
120 1554.80 3.82320629e+00 1.14696189e-01 
119 1556.11 3.74195083e+00 1.12258525e-01 
118 1557.42 3.78676111e+00 1.13602833e-01 
117 1558.73 3.70053743e+00 1.11016123e-01 
116 1560.04 3.74212986e+00 1.12263896e-01 
115 1561.34 3.65344854e+00 1.09603456e-01 
114 1562.65 3.71533789e+00 1.11460137e-01 
113 1563.95 3.62460824e+00 1.08738247e-01 
112 1565.26 3.68139974e+00 1.10441992e-01 
111 1566.56 3.56917254e+00 1.07075176e-01 
110 1567.86 3.58484288e+00 1.07545287e-01 
109 1569.16 3.47698142e+00 1.04309442e-01 
108 1570.46 3.47874444e+00 1.04362333e-01 
107 1571.76 3.37024944e+00 1.01107483e-01 
106 1573.05 3.34896124e+00 1.00468837e-01 
105 1574.35 3.23897546e+00 9.71692639e-02 
104 1575.64 3.26046603e+00 9.78139808e-02 
103 1576.94 3.20846994e+00 9.62540983e-02 
102 1578.23 3.30274147e+00 9.90822440e-02 
101 1579.52 3.28563415e+00 9.85690246e-02 
100 1580.81 3.36668273e+00 1.01000482e-01 
99 1582.10 3.30435485e+00 9.91306454e-02 
98 1583.39 3.35860318e+00 1.00758095e-01 
97 1584.68 3.24818828e+00 9.74456484e-02 
96 1585.97 3.23885710e+00 9.71657130e-02 
95 1587.25 3.11229304e+00 9.33687911e-02 
94 1588.54 3.14801190e+00 9.44403571e-02 
93 1589.82 3.06686242e+00 9.20058725e-02 
92 1591.10 3.16438309e+00 9.49314926e-02 
91 1592.38 3.11711703e+00 9.35135110e-02 
90 1593.66 3.18774546e+00 9.56323638e-02 
89 1594.94 3.08743126e+00 9.26229378e-02 
88 1596.22 3.12157426e+00 9.36472278e-02 
87 1597.50 3.01301350e+00 9.03904049e-02 
86 1598.77 3.02925336e+00 9.08776007e-02 
85 1600.05 2.91395249e+00 8.74185746e-02 
84 1601.32 2.94897773e+00 8.84693318e-02 
83 1602.59 2.85848880e+00 8.57546640e-02 
82 1603.86 2.92103078e+00 8.76309235e-02 
81 1605.13 2.80945686e+00 8.42837059e-02 
80 1606.40 2.86686480e+00 8.60059439e-02 
79 1607.67 2.75373274e+00 8.26119821e-02 
78 1608.94 2.80488506e+00 8.41465517e-02 
77 1610.20 2.75208670e+00 8.25626011e-02 
76 1611.47 2.82352192e+00 8.47056576e-02 
75 1612.73 2.75988536e+00 8.27965607e-02 
74 1614.00 2.81366948e+00 8.44100844e-02 
73 1615.26 2.71841294e+00 8.15523882e-02 
72 1616.52 2.74625008e+00 8.23875024e-02 
71 1617.78 2.65204962e+00 7.95614885e-02 
70 1619.03 2.69621384e+00 8.08864153e-02 
69 1620.29 2.61932048e+00 7.85796144e-02 
68 1621.55 2.67908961e+00 8.03726884e-02 
67 1622.80 2.62137344e+00 7.86412033e-02 
66 1624.06 2.69710395e+00 8.09131185e-02 
65 1625.31 2.57949885e+00 7.73849655e-02 
64 1626.56 2.65233854e+00 7.95701563e-02 
63 1627.81 2.54960523e+00 7.64881569e-02 
62 1629.06 2.57282550e+00 7.71847649e-02 
61 1630.31 2.47716132e+00 7.43148396e-02 
60 1631.56 2.50141552e+00 7.50424656e-02 
59 1632.80 2.40016961e+00 7.20050884e-02 
58 1634.05 2.44669570e+00 7.34008710e-02 
57 1635.29 2.35462943e+00 7.06388828e-02 
56 1636.53 2.37816121e+00 7.13448364e-02 
55 1637.77 2.24012413e+00 6.72037240e-02 
54 1639.01 2.26404393e+00 6.79213180e-02 
53 1640.25 2.19011427e+00 6.57034282e-02 
52 1641.49 2.21123882e+00 6.63371645e-02 
51 1642.73 2.13609811e+00 6.40829433e-02 
