% C0 (TOA Count Rate, /ms) for 4STAR VIS spectrometer (1044 channels) derived from 20160109-20160113 and recorded on 2016-01-28 15:27:57.
% Refined Langley processed excluding "bump" region at ~2.5 airmass for each of the days (20160109-20160113)
Pix Wavelength C0 C0err
0 173.18 -1.00000000e+00 0.00000000e+00 
1 173.97 5.78014750e+11 8.02540877e+11 
2 174.77 8.26958136e+11 7.63323323e+11 
3 175.56 7.70230670e+12 1.78306377e+13 
4 176.36 6.81786313e+13 9.15681586e+13 
5 177.15 9.77849421e+13 1.31455629e+14 
6 177.94 1.36906157e+14 1.82340203e+14 
7 178.74 1.79759789e+14 2.48199658e+14 
8 179.53 2.81520940e+14 4.06147517e+14 
9 180.33 4.12834451e+14 6.16429535e+14 
10 181.12 5.58773813e+14 8.02458498e+14 
11 181.92 7.71362645e+14 1.15882802e+15 
12 182.71 1.14101829e+15 1.81233961e+15 
13 183.51 1.44443228e+15 2.26535030e+15 
14 184.30 1.92890176e+15 3.01249274e+15 
15 185.10 1.88531381e+15 2.65931769e+15 
16 185.89 3.11094564e+15 4.75327239e+15 
17 186.69 5.23823936e+15 8.36929775e+15 
18 187.49 7.71025010e+15 1.26728359e+16 
19 188.28 9.63470643e+15 1.47827007e+16 
20 189.08 1.41181382e+16 2.15571907e+16 
21 189.88 1.71599296e+16 2.32242264e+16 
22 190.67 2.36324454e+16 3.06739451e+16 
23 191.47 3.34363150e+16 4.14064379e+16 
24 192.27 5.49113466e+16 7.54160972e+16 
25 193.07 6.25749114e+16 7.91169544e+16 
26 193.86 9.26506657e+16 1.16339749e+17 
27 194.66 1.59253526e+17 2.30832718e+17 
28 195.46 1.89661350e+17 2.53586037e+17 
29 196.26 2.02449265e+17 2.16863481e+17 
30 197.05 2.24719583e+17 2.11936111e+17 
31 197.85 2.50907394e+17 2.30258474e+17 
32 198.65 3.12665627e+17 2.34575224e+17 
33 199.45 3.95574550e+17 3.09975745e+17 
34 200.25 5.89637430e+17 7.73184401e+17 
35 201.05 7.98819930e+17 1.48334286e+18 
36 201.85 1.60087363e+18 3.40892940e+18 
37 202.64 3.76556410e+18 8.32682674e+18 
38 203.44 1.00854854e+19 2.24998860e+19 
39 204.24 1.28572735e+19 2.87216517e+19 
40 205.04 3.51008110e+19 7.84747851e+19 
41 205.84 1.00388686e+20 2.24468700e+20 
42 206.64 1.84932909e+20 4.13519219e+20 
43 207.44 4.33197137e+20 9.68656667e+20 
44 208.24 1.20454601e+21 2.69344603e+21 
45 209.04 5.86494850e+21 1.31144232e+22 
46 209.84 3.74635167e+22 8.37709698e+22 
47 210.64 1.06682867e+22 2.38550142e+22 
48 211.44 3.05548677e+21 6.83227609e+21 
49 212.24 8.57852030e+20 1.91821544e+21 
50 213.05 2.44828319e+20 5.47452756e+20 
51 213.85 7.19703354e+19 1.60930559e+20 
52 214.65 2.02373874e+19 4.52521722e+19 
53 215.45 5.86673631e+18 1.31184204e+19 
54 216.25 1.63469655e+18 3.65529226e+18 
55 217.05 4.81633640e+17 1.07696539e+18 
56 217.85 1.39045356e+17 3.10914790e+17 
57 218.65 3.86725905e+16 8.64745052e+16 
58 219.46 1.11695189e+16 2.49757867e+16 
59 220.26 3.16420027e+15 7.07535904e+15 
60 221.06 9.17839837e+14 2.05234863e+15 
61 221.86 2.60863790e+14 5.83307407e+14 
62 222.66 7.64786266e+13 1.71010581e+14 
63 223.47 2.15356401e+13 4.81547742e+13 
64 224.27 6.10522785e+12 1.36515243e+13 
65 225.07 1.76657803e+12 3.95010540e+12 
66 225.87 5.20710300e+11 1.16430383e+12 
67 226.68 1.47906000e+11 3.30709450e+11 
68 227.48 4.58225125e+10 1.02453185e+11 
69 228.28 1.44641163e+10 3.23382161e+10 
70 229.09 5.78119623e+09 1.29245561e+10 
71 229.89 3.34737177e+09 7.48303450e+09 
72 230.69 3.29692408e+09 7.37031627e+09 
73 231.49 5.61895422e+09 1.25617176e+10 
74 232.30 1.61391334e+10 3.60834070e+10 
75 233.10 5.67793566e+10 1.26952217e+11 
76 233.91 2.31552877e+11 5.17744486e+11 
77 234.71 9.81820803e+11 2.19536042e+12 
78 235.51 4.41436323e+12 9.87067144e+12 
79 236.32 1.88998636e+13 4.22610429e+13 
80 237.12 8.19687062e+13 1.83286715e+14 
81 237.92 3.68612548e+14 8.24240568e+14 
82 238.73 1.70253728e+15 3.80698376e+15 
83 239.53 7.74149832e+15 1.73105033e+16 
84 240.34 3.48577524e+16 7.79442704e+16 
85 241.14 1.43227084e+17 3.20265417e+17 
86 241.94 5.76215856e+17 1.28845764e+18 
87 242.75 2.28419271e+18 5.10760975e+18 
88 243.55 8.28895261e+18 1.85346606e+19 
89 244.36 2.85778879e+19 6.39020980e+19 
90 245.16 9.36055245e+19 2.09308312e+20 
91 245.97 2.96323381e+20 6.62599215e+20 
92 246.77 8.17667313e+20 1.82835968e+21 
93 247.58 2.16429071e+21 4.83950112e+21 
94 248.38 5.42656560e+21 1.21341695e+22 
95 249.19 1.24705208e+22 2.78849321e+22 
96 249.99 2.42945412e+22 5.43242456e+22 
97 250.80 4.05542455e+22 9.06820495e+22 
98 251.60 6.37781165e+22 1.42612204e+23 
99 252.41 1.00122035e+23 2.23879675e+23 
100 253.21 1.33626756e+23 2.98798510e+23 
101 254.02 1.58518939e+23 3.54459124e+23 
102 254.83 1.61033244e+23 3.60081279e+23 
103 255.63 1.67041621e+23 3.73516420e+23 
104 256.44 1.38962376e+23 3.10729319e+23 
105 257.24 9.82019753e+22 2.19586292e+23 
106 258.05 7.28238701e+22 1.62839124e+23 
107 258.85 4.60024895e+22 1.02864693e+23 
108 259.66 2.19901114e+22 4.91713839e+22 
109 260.46 1.04011997e+22 2.32577895e+22 
110 261.27 4.43804559e+21 9.92377160e+21 
111 262.08 1.65786610e+21 3.70710128e+21 
112 262.88 5.61000018e+20 1.25443416e+21 
113 263.69 1.86841972e+20 4.17791344e+20 
114 264.50 5.98487917e+19 1.33825964e+20 
115 265.30 1.86480652e+19 4.16983399e+19 
116 266.11 5.06268000e+18 1.13204960e+19 
117 266.91 1.18344968e+18 2.64627364e+18 
118 267.72 2.70773721e+17 6.05468332e+17 
119 268.53 5.34816740e+16 1.19588613e+17 
120 269.33 1.09995353e+16 2.45956919e+16 
121 270.14 2.66755444e+15 5.96482596e+15 
122 270.95 6.01036121e+14 1.34395479e+15 
123 271.75 1.23900945e+14 2.77049817e+14 
124 272.56 2.55627309e+13 5.71595906e+13 
125 273.37 4.70806548e+12 1.05274014e+13 
126 274.17 8.54651951e+11 1.91100579e+12 
127 274.98 1.73536660e+11 3.88019110e+11 
128 275.79 3.75946604e+10 8.40559378e+10 
129 276.59 8.91406044e+09 1.99290733e+10 
130 277.40 2.03725223e+09 4.55401249e+09 
131 278.21 4.82688650e+08 1.07873466e+09 
132 279.01 1.15582730e+08 2.58198538e+08 
133 279.82 2.96044785e+07 6.60861797e+07 
134 280.63 7.35179294e+06 1.63927167e+07 
135 281.44 1.87316110e+06 4.16801173e+06 
136 282.24 5.26884902e+05 1.16870978e+06 
137 283.05 1.69007724e+05 3.73116536e+05 
138 283.86 5.65216689e+04 1.23930423e+05 
139 284.66 1.95581107e+04 4.23496006e+04 
140 285.47 7.45125294e+03 1.59488533e+04 
141 286.28 3.08103261e+03 6.47428200e+03 
142 287.09 1.33345280e+03 2.72576204e+03 
143 287.89 6.14562341e+02 1.21995593e+03 
144 288.70 2.78934691e+02 5.27953779e+02 
145 289.51 1.45820878e+02 2.62915333e+02 
146 290.32 8.06480455e+01 1.36376969e+02 
147 291.12 4.76405776e+01 7.65048442e+01 
148 291.93 2.82021786e+01 4.13775081e+01 
149 292.74 1.81558076e+01 2.40688002e+01 
150 293.55 1.20153994e+01 1.50814060e+01 
151 294.35 8.32761050e+00 9.69044684e+00 
152 295.16 6.27509905e+00 6.55449359e+00 
153 295.97 4.58059298e+00 4.23053066e+00 
154 296.78 3.45769651e+00 2.93644062e+00 
155 297.58 2.76261981e+00 2.07675650e+00 
156 298.39 2.26061904e+00 1.51472269e+00 
157 299.20 1.91373188e+00 1.19405565e+00 
158 300.01 1.61367755e+00 8.81513297e-01 
159 300.81 1.43181514e+00 6.94678795e-01 
160 301.62 1.23096782e+00 5.59770147e-01 
161 302.43 1.14078642e+00 4.62953385e-01 
162 303.24 1.02296602e+00 3.73510440e-01 
163 304.05 9.54376786e-01 3.29947896e-01 
164 304.85 8.79320947e-01 2.80439102e-01 
165 305.66 8.28539782e-01 2.49838809e-01 
166 306.47 7.95953933e-01 2.30615261e-01 
167 307.28 7.45999454e-01 1.85270867e-01 
168 308.08 7.18804094e-01 1.72305394e-01 
169 308.89 6.80642954e-01 1.48970210e-01 
170 309.70 6.65364013e-01 1.49620898e-01 
171 310.51 6.59160298e-01 1.41819959e-01 
172 311.32 6.42349231e-01 1.51896178e-01 
173 312.12 6.15858715e-01 1.29098814e-01 
174 312.93 6.25725634e-01 1.30168706e-01 
175 313.74 6.03759889e-01 1.19612387e-01 
176 314.55 6.05978298e-01 1.18269491e-01 
177 315.36 5.87380010e-01 1.03638755e-01 
178 316.16 5.94043817e-01 1.04830171e-01 
179 316.97 5.90783154e-01 1.05261407e-01 
180 317.78 6.08475413e-01 1.06446352e-01 
181 318.59 5.98209787e-01 9.32837182e-02 
182 319.39 6.05927761e-01 1.01906096e-01 
183 320.20 6.13884516e-01 1.01331056e-01 
184 321.01 6.22458595e-01 8.43389992e-02 
185 321.82 6.10298139e-01 9.34998821e-02 
186 322.63 6.46516425e-01 1.12122260e-01 
187 323.43 6.45659310e-01 1.09825959e-01 
188 324.24 6.65447173e-01 1.05593632e-01 
189 325.05 6.63020635e-01 1.13725235e-01 
190 325.86 6.84412581e-01 9.42276545e-02 
191 326.67 7.04038763e-01 8.97039055e-02 
192 327.48 7.24414925e-01 9.57206838e-02 
193 328.28 7.42151617e-01 1.19628551e-01 
194 329.09 7.63895528e-01 1.13973449e-01 
195 329.90 7.96640084e-01 1.04143710e-01 
196 330.71 8.32691839e-01 1.24174537e-01 
197 331.51 8.81236025e-01 1.46280978e-01 
198 332.32 9.64792268e-01 1.50090511e-01 
199 333.13 1.11763356e+00 1.38441104e-01 
200 333.94 1.40484157e+00 2.03387400e-01 
201 334.75 1.89861965e+00 2.63625097e-01 
202 335.56 2.64326555e+00 3.26008955e-01 
203 336.36 3.74499141e+00 4.66857611e-01 
204 337.17 5.58984173e+00 6.01091363e-01 
205 337.98 8.42578685e+00 7.30099141e-01 
206 338.79 1.18734804e+01 9.25609374e-01 
207 339.59 1.58886634e+01 1.01953922e+00 
208 340.40 1.96391124e+01 1.21394536e+00 
209 341.21 2.28131647e+01 1.09881218e+00 
210 342.02 2.64717676e+01 1.25380641e+00 
211 342.83 2.99892232e+01 1.20665718e+00 
212 343.64 3.10577502e+01 1.27775829e+00 
213 344.44 3.21891294e+01 1.23650987e+00 
214 345.25 3.59904745e+01 1.18877055e+00 
215 346.06 3.98570690e+01 1.12208124e+00 
216 346.87 4.23676598e+01 1.23068796e+00 
217 347.67 4.42220196e+01 1.23562148e+00 
218 348.48 4.58490235e+01 1.13351420e+00 
219 349.29 4.85814049e+01 1.02504559e+00 
220 350.10 5.33845706e+01 1.06778130e+00 
221 350.91 5.71386550e+01 1.05053526e+00 
222 351.71 5.76528805e+01 1.04982479e+00 
223 352.52 5.85413178e+01 1.02233371e+00 
224 353.33 6.36653991e+01 8.79000465e-01 
225 354.14 7.06313147e+01 8.48296813e-01 
226 354.94 7.41823858e+01 9.52737770e-01 
227 355.75 7.33870513e+01 8.82828348e-01 
228 356.56 6.94071176e+01 8.18521321e-01 
229 357.37 6.52063187e+01 7.87195870e-01 
230 358.18 6.39825261e+01 6.80377157e-01 
231 358.98 7.11016516e+01 7.06063287e-01 
232 359.79 8.27949221e+01 7.21805886e-01 
233 360.60 8.52978844e+01 7.35839271e-01 
234 361.41 8.37966574e+01 6.57554668e-01 
235 362.21 8.80276955e+01 6.73424102e-01 
236 363.02 9.35989338e+01 6.77601111e-01 
237 363.83 9.69899210e+01 6.12173791e-01 
238 364.64 1.01445724e+02 5.72981240e-01 
239 365.44 1.10433994e+02 6.08277972e-01 
240 366.25 1.19068660e+02 5.77703216e-01 
241 367.06 1.20846591e+02 6.24281183e-01 
242 367.87 1.19089670e+02 6.13259143e-01 
243 368.67 1.20405312e+02 5.24314883e-01 
244 369.48 1.25734327e+02 5.95051885e-01 
245 370.29 1.27561748e+02 5.93655441e-01 
246 371.10 1.26286992e+02 5.50210656e-01 
247 371.90 1.23438565e+02 5.58148467e-01 
248 372.71 1.17057487e+02 5.64851309e-01 
249 373.52 1.10458302e+02 5.24906562e-01 
250 374.33 1.09283608e+02 4.30422892e-01 
251 375.13 1.16451662e+02 4.55852784e-01 
252 375.94 1.27071417e+02 4.67362051e-01 
253 376.75 1.38286795e+02 4.37249287e-01 
254 377.55 1.51569008e+02 4.90308901e-01 
255 378.36 1.56684685e+02 5.62788619e-01 
256 379.17 1.49507568e+02 5.46500087e-01 
257 379.98 1.45461028e+02 4.74799327e-01 
258 380.78 1.45680723e+02 6.54329330e-01 
259 381.59 1.34481420e+02 8.32842843e-01 
260 382.40 1.14812981e+02 6.17016061e-01 
261 383.21 1.04354775e+02 2.79659027e-01 
262 384.01 1.11738102e+02 4.08680927e-01 
263 384.82 1.26981789e+02 4.05460744e-01 
264 385.63 1.34471815e+02 3.95022059e-01 
265 386.43 1.35945649e+02 3.94761399e-01 
266 387.24 1.37040074e+02 4.20170160e-01 
267 388.05 1.39166909e+02 2.93929950e-01 
268 388.85 1.47098701e+02 2.78930450e-01 
269 389.66 1.60926470e+02 3.08989053e-01 
270 390.47 1.72938508e+02 4.44328989e-01 
271 391.27 1.75404246e+02 8.33857973e-01 
272 392.08 1.58984043e+02 1.26545778e+00 
273 392.89 1.30045056e+02 7.67646413e-01 
274 393.69 1.20376369e+02 1.82777233e-01 
275 394.50 1.42000360e+02 2.77594272e-01 
276 395.31 1.61592297e+02 8.77642748e-01 
277 396.11 1.53470634e+02 8.81577187e-01 
278 396.92 1.44043141e+02 2.51756583e-01 
279 397.73 1.67057122e+02 5.82636282e-01 
280 398.53 2.07447455e+02 5.59843638e-01 
281 399.34 2.34999398e+02 8.99550886e-01 
282 400.15 2.48545615e+02 1.02438902e+00 
283 400.95 2.57639295e+02 1.08252453e+00 
284 401.76 2.65045158e+02 1.24733684e+00 
285 402.57 2.67789714e+02 1.38312387e+00 
286 403.37 2.66556554e+02 1.38868473e+00 
287 404.18 2.65345215e+02 1.42168306e+00 
288 404.98 2.64261468e+02 1.48543927e+00 
289 405.79 2.63037374e+02 1.45024396e+00 
290 406.60 2.63589429e+02 1.35347700e+00 
291 407.40 2.69449173e+02 1.32939946e+00 
292 408.21 2.79445819e+02 1.54175907e+00 
293 409.02 2.84184300e+02 1.79706081e+00 
294 409.82 2.81367946e+02 1.63907880e+00 
295 410.63 2.83596119e+02 1.49655118e+00 
296 411.44 2.95469846e+02 1.77342611e+00 
297 412.24 3.04807166e+02 1.97088595e+00 
298 413.05 3.06563714e+02 1.96869145e+00 
299 413.85 3.06550077e+02 1.97188402e+00 
300 414.66 3.07323075e+02 2.02190092e+00 
301 415.46 3.08787657e+02 2.08789788e+00 
302 416.27 3.09633567e+02 2.30831766e+00 
303 417.08 3.06754946e+02 2.35301715e+00 
304 417.88 3.02021461e+02 2.28915075e+00 
305 418.69 3.00000681e+02 2.28887766e+00 
306 419.49 3.01062747e+02 2.19216475e+00 
307 420.30 3.05121185e+02 2.19430409e+00 
308 421.11 3.09101967e+02 2.39462747e+00 
309 421.91 3.07692340e+02 2.41620307e+00 
310 422.72 3.02830015e+02 2.08824581e+00 
311 423.52 3.02061265e+02 1.98236074e+00 
312 424.33 3.05253554e+02 2.03822005e+00 
313 425.13 3.07444943e+02 2.02411587e+00 
314 425.94 3.07272571e+02 1.99278058e+00 
315 426.74 3.06156673e+02 1.89583490e+00 
316 427.55 3.04758447e+02 1.79098376e+00 
317 428.35 3.00351916e+02 1.97101432e+00 
318 429.16 2.88327291e+02 1.89777929e+00 
319 429.96 2.74163625e+02 1.09289590e+00 
320 430.77 2.77261427e+02 5.24058647e-01 
321 431.58 3.02795709e+02 7.46027318e-01 
322 432.38 3.32102256e+02 1.14479765e+00 
323 433.19 3.46756127e+02 1.15043202e+00 
324 433.99 3.52857724e+02 7.94610148e-01 
325 434.80 3.64238125e+02 5.99286634e-01 
326 435.60 3.81659740e+02 7.23082718e-01 
327 436.41 3.94228083e+02 9.61462266e-01 
328 437.21 3.93967222e+02 9.19799117e-01 
329 438.02 3.87290792e+02 5.52987348e-01 
330 438.82 3.86450244e+02 5.08633432e-01 
331 439.63 3.95381130e+02 6.74201428e-01 
332 440.43 4.10607087e+02 7.33949983e-01 
333 441.24 4.26795432e+02 7.39691517e-01 
334 442.04 4.41585615e+02 6.38412374e-01 
335 442.84 4.51944868e+02 5.93627885e-01 
336 443.65 4.57593045e+02 5.29568556e-01 
337 444.45 4.59187369e+02 4.55173135e-01 
338 445.26 4.57932022e+02 4.91891852e-01 
339 446.06 4.59868200e+02 8.49058078e-01 
340 446.87 4.68610345e+02 1.02504206e+00 
341 447.67 4.81268462e+02 1.06280958e+00 
342 448.48 4.91608798e+02 1.13958411e+00 
343 449.28 5.00930517e+02 1.33291456e+00 
344 450.09 5.11239466e+02 1.22196112e+00 
345 450.89 5.17800932e+02 8.60492191e-01 
346 451.69 5.14164939e+02 6.74166273e-01 
347 452.50 5.04198914e+02 8.05202623e-01 
348 453.30 4.98153502e+02 9.84555450e-01 
349 454.11 4.99676456e+02 1.06175010e+00 
350 454.91 5.06955359e+02 1.22299474e+00 
351 455.72 5.15386321e+02 1.33354271e+00 
352 456.52 5.22535871e+02 1.32042144e+00 
353 457.32 5.26056309e+02 1.31378258e+00 
354 458.13 5.25390206e+02 1.33694724e+00 
355 458.93 5.24333914e+02 1.40061178e+00 
356 459.74 5.26989490e+02 1.46515656e+00 
357 460.54 5.33524769e+02 1.40190681e+00 
358 461.34 5.41016274e+02 1.26422251e+00 
359 462.15 5.46279441e+02 1.08085979e+00 
360 462.95 5.46739048e+02 9.95909730e-01 
361 463.76 5.43416372e+02 1.10740770e+00 
362 464.56 5.39684137e+02 1.33441064e+00 
363 465.36 5.37085443e+02 1.46876476e+00 
364 466.17 5.35958050e+02 1.61669123e+00 
365 466.97 5.36746562e+02 1.73261890e+00 
366 467.77 5.39387720e+02 1.63845954e+00 
367 468.58 5.42617068e+02 1.39602432e+00 
368 469.38 5.43582866e+02 1.26343143e+00 
369 470.18 5.43928737e+02 1.39319852e+00 
370 470.99 5.48441834e+02 1.44644838e+00 
371 471.79 5.56219703e+02 1.29233244e+00 
372 472.59 5.63740538e+02 1.38433741e+00 
373 473.40 5.69278755e+02 1.66031170e+00 
374 474.20 5.72946434e+02 1.84094638e+00 
375 475.00 5.75450527e+02 1.89148496e+00 
376 475.81 5.77339572e+02 2.02116631e+00 
377 476.61 5.80519256e+02 1.99249100e+00 
378 477.41 5.86100576e+02 1.77681784e+00 
379 478.21 5.91836694e+02 1.51997946e+00 
380 479.02 5.95798123e+02 1.40944973e+00 
381 479.82 5.97798997e+02 1.40127392e+00 
382 480.62 5.99970808e+02 1.34992532e+00 
383 481.43 6.01103707e+02 1.35802944e+00 
384 482.23 6.00026895e+02 1.49449221e+00 
385 483.03 5.95840204e+02 1.64239740e+00 
386 483.84 5.86609399e+02 1.55330881e+00 
387 484.64 5.68798401e+02 1.37932914e+00 
388 485.44 5.46392066e+02 1.61670065e+00 
389 486.24 5.32184763e+02 2.11652912e+00 
390 487.05 5.33236545e+02 2.08869822e+00 
391 487.85 5.47471960e+02 1.78403626e+00 
392 488.65 5.65634084e+02 1.63465089e+00 
393 489.45 5.78401445e+02 1.40188822e+00 
394 490.26 5.83030231e+02 1.16594783e+00 
395 491.06 5.81335021e+02 1.29206060e+00 
396 491.86 5.77186677e+02 1.77453851e+00 
397 492.66 5.76224313e+02 2.16726461e+00 
398 493.46 5.81277766e+02 2.45441930e+00 
399 494.27 5.88273566e+02 2.46029624e+00 
400 495.07 5.92653064e+02 2.39707878e+00 
401 495.87 5.94696736e+02 2.24306422e+00 
402 496.67 5.92781565e+02 1.93089380e+00 
403 497.48 5.88398287e+02 1.74827407e+00 
404 498.28 5.83714379e+02 1.55624499e+00 
405 499.08 5.78077639e+02 1.29141792e+00 
406 499.88 5.71860869e+02 1.18112763e+00 
407 500.68 5.66498144e+02 1.38412038e+00 
408 501.48 5.63457128e+02 1.73227795e+00 
409 502.29 5.64866120e+02 1.96509465e+00 
410 503.09 5.68777563e+02 2.23369626e+00 
411 503.89 5.74055685e+02 2.52658715e+00 
412 504.69 5.80203108e+02 2.62818436e+00 
413 505.49 5.85201081e+02 2.37616188e+00 
414 506.29 5.86862158e+02 2.07959103e+00 
415 507.09 5.84607615e+02 1.97445504e+00 
416 507.90 5.81367757e+02 1.84435215e+00 
417 508.70 5.79894981e+02 1.59762241e+00 
418 509.50 5.80357992e+02 1.40122262e+00 
419 510.30 5.81544196e+02 1.37168805e+00 
420 511.10 5.80684943e+02 1.31338366e+00 
421 511.90 5.77051482e+02 1.46088595e+00 
422 512.70 5.71020057e+02 1.75571431e+00 
423 513.51 5.64191784e+02 2.09696175e+00 
424 514.31 5.58577342e+02 2.21239396e+00 
425 515.11 5.50783916e+02 1.99104388e+00 
426 515.91 5.37518370e+02 1.89637108e+00 
427 516.71 5.23278775e+02 2.03541433e+00 
428 517.51 5.14333408e+02 2.06723465e+00 
429 518.31 5.16390926e+02 1.93500501e+00 
430 519.11 5.28185457e+02 1.66527834e+00 
431 519.91 5.41112933e+02 1.44058915e+00 
432 520.71 5.51018721e+02 1.30714734e+00 
433 521.51 5.55398066e+02 1.33126952e+00 
434 522.32 5.57460886e+02 1.62518094e+00 
435 523.12 5.61104365e+02 1.89082376e+00 
436 523.92 5.65117452e+02 1.92701835e+00 
437 524.72 5.65612730e+02 1.82380387e+00 
438 525.52 5.58907577e+02 1.96724079e+00 
439 526.32 5.49330310e+02 2.40821044e+00 
440 527.12 5.46484291e+02 2.71302637e+00 
441 527.92 5.52845998e+02 2.58602967e+00 
442 528.72 5.64969612e+02 2.26042017e+00 
443 529.52 5.76234608e+02 1.92956536e+00 
444 530.32 5.81730228e+02 1.51563985e+00 
445 531.12 5.80431126e+02 1.11678374e+00 
446 531.92 5.75365721e+02 1.10807875e+00 
447 532.72 5.70258266e+02 1.38030304e+00 
448 533.52 5.68913883e+02 1.69081242e+00 
449 534.32 5.72570816e+02 1.82861279e+00 
450 535.12 5.77108218e+02 1.90001924e+00 
451 535.92 5.78322353e+02 2.05022821e+00 
452 536.72 5.77094335e+02 2.35962702e+00 
453 537.52 5.74677817e+02 2.46522943e+00 
454 538.32 5.71118690e+02 2.39872781e+00 
455 539.12 5.66506095e+02 2.28830860e+00 
456 539.92 5.62030396e+02 2.21659569e+00 
457 540.72 5.60075616e+02 2.01414971e+00 
458 541.52 5.61603855e+02 1.60804654e+00 
459 542.32 5.65950226e+02 1.30818581e+00 
460 543.12 5.70429997e+02 1.18050250e+00 
461 543.92 5.73650099e+02 1.14045919e+00 
462 544.72 5.75609153e+02 1.25590631e+00 
463 545.52 5.75589556e+02 1.42223055e+00 
464 546.31 5.73184785e+02 1.64035206e+00 
465 547.12 5.69963528e+02 1.93120957e+00 
466 547.91 5.67935276e+02 2.18539560e+00 
467 548.71 5.67351341e+02 2.28230119e+00 
468 549.51 5.67644723e+02 2.35574743e+00 
469 550.31 5.67518407e+02 2.37173967e+00 
470 551.11 5.66967212e+02 2.29762937e+00 
471 551.91 5.66586490e+02 2.11752571e+00 
