% C0 (TOA Count Rate, /ms) for 4STAR NIR spectrometer (512 channels) derived from (SEE Original files for sources) and recorded on 2017-05-23 19:48:42.
% Langley at MLO and airborne Data outside 2.0x the STD of 501 nm Langley residuals were screened out. 
% Including high Altitude rate spectra, matched to splined stratospheric AOD measured at MLO.
% Averages of c0 from multiple days including: , infl-ig-ht, MLO -av-g-, MLO -av-g-, infl-ig-ht, infl-ig-ht, high- a-lt, high- a-lt, high- a-lt. See the list of files below
% 20160825_NIR_C0_refined_Langley_ORACLES_transit2.dat
% 20161115_NIR_C0_refined_Langley_Nov2016part1.5incl1115_good_mean.dat
% 20161115_NIR_C0_refined_Langley_Nov2016part1.5incl1115_good_mean.dat
% 20160918_NIR_C0_refined_Langley_airborne_ORACLES_v1.dat
% 20160924_NIR_C0_refined_Langley_airborne_ORACLES_v1.dat
% 20160908_NIR_C0_refined_high_alt_low_m.dat
% 20160912_NIR_C0_refined_high_alt_low_m.dat
% 20160927_NIR_C0_refined_high_alt_low_m.dat
Pix Wavelength C0 C0err
511 949.79 5.30408928e+00 5.43661021e-01 
510 949.79 5.56010187e+00 3.70055256e-01 
509 951.68 5.94740163e+00 3.63814461e-01 
508 953.57 5.99889263e+00 3.52370989e-01 
507 955.46 6.45575697e+00 3.35619279e-01 
506 957.34 6.55150666e+00 3.09385200e-01 
505 959.22 7.01874967e+00 2.76254827e-01 
504 961.10 7.08838412e+00 2.17507518e-01 
503 962.98 7.51540828e+00 1.78309266e-01 
502 964.85 7.49842257e+00 1.28305394e-01 
501 966.72 7.99771699e+00 7.98459152e-02 
500 968.59 8.02587297e+00 5.11505644e-02 
499 970.45 8.41011290e+00 4.07410706e-02 
498 972.32 8.37685597e+00 5.48132502e-02 
497 974.18 8.70830362e+00 5.42672732e-02 
496 976.04 8.63246441e+00 4.55304625e-02 
495 977.89 8.96322818e+00 4.24982381e-02 
494 979.74 8.85687516e+00 5.42562737e-02 
493 981.59 9.14567586e+00 6.40456051e-02 
492 983.44 9.01990143e+00 8.43479057e-02 
491 985.29 9.26859502e+00 9.43202444e-02 
490 987.13 9.06300743e+00 1.13468353e-01 
489 988.97 9.30221703e+00 1.33451465e-01 
488 990.81 9.11896957e+00 1.19929143e-01 
487 992.65 9.29580199e+00 1.25771687e-01 
486 994.48 9.09956353e+00 1.28932565e-01 
485 996.31 9.23656149e+00 1.31570620e-01 
484 998.14 9.00495851e+00 1.13537250e-01 
483 999.97 9.15529683e+00 1.23272938e-01 
482 1001.79 8.88160807e+00 1.18291009e-01 
481 1003.62 8.96130164e+00 1.39218075e-01 
480 1005.44 8.75044193e+00 1.35604424e-01 
479 1007.25 8.98540837e+00 1.48109633e-01 
478 1009.07 8.77578725e+00 1.43120499e-01 
477 1010.88 8.93092722e+00 1.44527750e-01 
476 1012.69 8.65700168e+00 1.36520456e-01 
475 1014.50 8.77669312e+00 1.28267536e-01 
474 1016.31 8.55623268e+00 1.21335916e-01 
473 1018.11 8.69552475e+00 1.27421630e-01 
472 1019.91 8.44740049e+00 1.31848681e-01 
471 1021.71 8.59715399e+00 1.40020126e-01 
470 1023.51 8.37154671e+00 1.33525661e-01 
469 1025.30 8.53538013e+00 1.25778235e-01 
468 1027.09 8.42893634e+00 1.10499039e-01 
467 1028.88 8.56073619e+00 1.15136352e-01 
466 1030.67 8.40897196e+00 1.02801810e-01 
465 1032.46 8.57048368e+00 1.09302047e-01 
464 1034.24 8.41556135e+00 1.16014086e-01 
463 1036.02 8.60869737e+00 1.22163949e-01 
462 1037.80 8.48130922e+00 1.23761061e-01 
461 1039.58 8.69029826e+00 1.18546413e-01 
460 1041.35 8.54625959e+00 1.09936939e-01 
459 1043.12 8.70793029e+00 1.12779906e-01 
458 1044.89 8.62428595e+00 1.22997428e-01 
457 1046.66 8.84538790e+00 1.29539251e-01 
456 1048.43 8.79075830e+00 1.25811342e-01 
455 1050.19 9.01933303e+00 1.37281162e-01 
454 1051.95 8.89120199e+00 1.34345286e-01 
453 1053.71 9.13804631e+00 1.34842642e-01 
452 1055.47 8.97352747e+00 1.17978044e-01 
451 1057.23 9.11250996e+00 1.14165447e-01 
450 1058.98 8.95398713e+00 9.92754538e-02 
449 1060.73 9.12080474e+00 1.16503689e-01 
448 1062.48 8.91889566e+00 1.28491330e-01 
447 1064.23 9.04532884e+00 1.40289740e-01 
446 1065.97 8.75698308e+00 1.55032878e-01 
445 1067.71 8.79519508e+00 1.58968211e-01 
444 1069.46 8.60632574e+00 1.40190216e-01 
443 1071.19 8.72036870e+00 1.16542766e-01 
442 1072.93 8.56143708e+00 1.17453534e-01 
441 1074.67 8.65773904e+00 1.22121750e-01 
440 1076.40 8.45820786e+00 1.16057928e-01 
439 1078.13 8.48674838e+00 1.29504504e-01 
438 1079.86 8.26445519e+00 1.14803783e-01 
437 1081.58 8.33927909e+00 1.05575105e-01 
436 1083.31 8.22450809e+00 9.23694114e-02 
435 1085.03 8.40685006e+00 8.79698233e-02 
434 1086.75 8.34980378e+00 8.11031775e-02 
433 1088.47 8.51163813e+00 7.44574251e-02 
432 1090.19 8.41240542e+00 7.78037560e-02 
431 1091.90 8.53267175e+00 6.41591402e-02 
430 1093.61 8.41459261e+00 5.54023634e-02 
429 1095.33 8.63680543e+00 5.06078324e-02 
428 1097.03 8.67529364e+00 3.37202093e-02 
427 1098.74 8.93731032e+00 3.64418343e-02 
426 1100.45 8.97174581e+00 3.90509345e-02 
425 1102.15 9.26947890e+00 3.56873201e-02 
424 1103.85 9.28235898e+00 4.48385527e-02 
423 1105.55 9.55157541e+00 8.54774689e-02 
422 1107.25 9.48905222e+00 1.47934378e-01 
421 1108.94 9.67479747e+00 2.44758444e-01 
420 1110.64 9.51853309e+00 3.79743595e-01 
419 1112.33 9.60464233e+00 6.15717426e-01 
418 1114.02 9.34240988e+00 8.99686402e-01 
417 1115.70 9.39169156e+00 1.10152765e+00 
416 1117.39 9.17752351e+00 1.19472134e+00 
415 1119.07 9.19967736e+00 1.31384394e+00 
414 1120.76 9.08631611e+00 1.37473011e+00 
413 1122.44 9.20167320e+00 1.50805963e+00 
412 1124.12 9.13900134e+00 1.47231580e+00 
411 1125.79 9.31329497e+00 1.36503015e+00 
410 1127.47 9.35108865e+00 1.19362509e+00 
409 1129.14 9.59782591e+00 1.03930186e+00 
408 1130.81 9.32516893e+00 1.27573252e+00 
407 1132.48 9.29706783e+00 1.43177432e+00 
406 1134.15 9.14875127e+00 1.41065630e+00 
405 1135.81 9.34110366e+00 1.13657346e+00 
404 1137.48 9.58430131e+00 7.04982930e-01 
403 1139.14 9.80319605e+00 6.04240248e-01 
402 1140.80 9.57982208e+00 7.06228999e-01 
401 1142.46 9.59911968e+00 8.91103905e-01 
400 1144.12 9.36074558e+00 1.00863852e+00 
399 1145.77 9.41498915e+00 1.07551697e+00 
398 1147.43 9.34735703e+00 9.94777110e-01 
397 1149.08 9.47244874e+00 8.73000763e-01 
396 1150.73 9.41281122e+00 8.21805375e-01 
395 1152.38 9.60534900e+00 7.01890413e-01 
394 1154.02 9.53219454e+00 6.03400296e-01 
393 1155.67 9.70764513e+00 4.75430644e-01 
392 1157.31 9.54437209e+00 3.86075905e-01 
391 1158.95 9.59602250e+00 2.76749378e-01 
390 1160.59 9.49818157e+00 1.93999734e-01 
389 1162.23 9.62236672e+00 1.07688946e-01 
388 1163.87 9.50340238e+00 6.16272897e-02 
387 1165.50 9.54922685e+00 4.60852763e-02 
386 1167.13 9.43065826e+00 4.14584309e-02 
385 1168.76 9.51748584e+00 3.16560435e-02 
384 1170.39 9.40154791e+00 5.03877323e-02 
383 1172.02 9.38426296e+00 4.73707662e-02 
382 1173.65 9.19523324e+00 4.46089151e-02 
381 1175.27 9.18409365e+00 5.76211626e-02 
380 1176.90 9.05526616e+00 4.53909833e-02 
379 1178.52 9.03359069e+00 7.47589770e-02 
378 1180.14 8.81350021e+00 6.89672140e-02 
377 1181.75 8.80506692e+00 8.93234342e-02 
376 1183.37 8.62018096e+00 8.84135973e-02 
375 1184.99 8.64216319e+00 7.53666277e-02 
374 1186.60 8.50789541e+00 5.74450188e-02 
373 1188.21 8.46589475e+00 3.51777311e-02 
372 1189.82 8.37178118e+00 4.35120999e-02 
371 1191.43 8.55628337e+00 5.56041724e-02 
370 1193.04 8.44973714e+00 5.51434428e-02 
369 1194.64 8.44334121e+00 5.47984871e-02 
368 1196.24 8.28467968e+00 3.18972324e-02 
367 1197.85 8.34148429e+00 1.97400853e-02 
366 1199.45 8.22572168e+00 2.89162839e-02 
365 1201.05 8.30781589e+00 2.26185315e-02 
364 1202.64 8.23013151e+00 2.09804978e-02 
363 1204.24 8.26038897e+00 3.55765376e-02 
362 1205.83 8.17235262e+00 7.82958643e-02 
361 1207.43 8.18146768e+00 7.90739650e-02 
360 1209.02 8.12812057e+00 5.10002482e-02 
359 1210.61 8.25405829e+00 3.98159855e-02 
358 1212.19 8.22005637e+00 5.61520284e-02 
357 1213.78 8.35424037e+00 7.62308337e-02 
356 1215.37 8.28524318e+00 6.51970627e-02 
355 1216.95 8.33279563e+00 6.89262932e-02 
354 1218.53 8.29095962e+00 7.34212503e-02 
353 1220.11 8.35762953e+00 8.28005075e-02 
352 1221.69 8.33678598e+00 6.54395507e-02 
351 1223.27 8.37125140e+00 6.58300804e-02 
350 1224.84 8.35450444e+00 7.16953644e-02 
349 1226.42 8.38920515e+00 8.44032753e-02 
348 1227.99 8.34949389e+00 8.29531572e-02 
347 1229.56 8.47440267e+00 7.56908054e-02 
346 1231.13 8.39657752e+00 7.23250979e-02 
345 1232.70 8.45933106e+00 7.08870319e-02 
344 1234.27 8.41159653e+00 8.17491960e-02 
343 1235.84 8.41867405e+00 8.03798456e-02 
342 1237.40 8.35089614e+00 9.91384111e-02 
341 1238.96 8.34875728e+00 1.07989925e-01 
340 1240.52 8.19634231e+00 1.06379816e-01 
339 1242.08 8.30949834e+00 1.19209078e-01 
338 1243.64 8.27661915e+00 1.11568196e-01 
337 1245.20 8.30748845e+00 1.16771031e-01 
336 1246.75 8.29103962e+00 9.75475621e-02 
335 1248.31 8.36612915e+00 9.25357446e-02 
334 1249.86 8.28903785e+00 9.72582197e-02 
333 1251.41 8.33020389e+00 9.21893842e-02 
332 1252.96 8.24344013e+00 9.96909315e-02 
331 1254.51 8.27794426e+00 9.14553820e-02 
330 1256.06 8.20768250e+00 8.12639418e-02 
329 1257.61 8.18415502e+00 6.94567559e-02 
328 1259.15 8.08773566e+00 6.50754939e-02 
327 1260.69 8.06294494e+00 7.22330558e-02 
326 1262.23 7.95564072e+00 8.45510365e-02 
325 1263.77 7.94482108e+00 8.47417903e-02 
324 1265.31 7.81671748e+00 1.11828395e-01 
323 1266.85 7.85360197e+00 1.11260932e-01 
322 1268.39 7.88060962e+00 9.31835382e-02 
321 1269.92 7.98785913e+00 7.18325309e-02 
320 1271.46 8.10729161e+00 6.11920667e-02 
319 1272.99 8.13201055e+00 7.36203837e-02 
318 1274.52 8.10449642e+00 8.09016267e-02 
317 1276.05 8.16038507e+00 8.52406535e-02 
316 1277.58 8.01296833e+00 7.76265918e-02 
315 1279.10 7.85770334e+00 8.35470886e-02 
314 1280.63 7.81492024e+00 8.57321513e-02 
313 1282.15 7.80445350e+00 9.72002169e-02 
312 1283.68 7.91077260e+00 9.12743666e-02 
311 1285.20 8.07676948e+00 1.07574095e-01 
310 1286.72 8.05102884e+00 9.39416348e-02 
309 1288.24 8.06902206e+00 8.68305257e-02 
308 1289.75 7.96288994e+00 9.84725789e-02 
307 1291.27 7.97478629e+00 1.01496711e-01 
306 1292.78 8.01977353e+00 8.48694740e-02 
305 1294.30 8.02773771e+00 9.58116704e-02 
304 1295.81 7.95950821e+00 9.02924287e-02 
303 1297.32 7.95286007e+00 8.06079247e-02 
302 1298.83 7.90035496e+00 8.05142093e-02 
301 1300.34 7.86437603e+00 5.83226936e-02 
300 1301.85 7.82182194e+00 4.04764170e-02 
299 1303.35 7.78698162e+00 4.57334250e-02 
298 1304.86 7.71962906e+00 6.13692938e-02 
297 1306.36 7.70923489e+00 6.19472260e-02 
296 1307.86 7.65189695e+00 5.43475946e-02 
295 1309.36 7.56639027e+00 4.95274501e-02 
294 1310.86 7.49513030e+00 7.52305190e-02 
293 1312.36 7.42288748e+00 7.69862858e-02 
292 1313.86 7.37661757e+00 1.11351830e-01 
291 1315.36 7.37522368e+00 1.12714003e-01 
290 1316.85 7.33251858e+00 1.26025046e-01 
289 1318.34 7.30025679e+00 1.26811024e-01 
288 1319.84 7.27457820e+00 1.48501728e-01 
287 1321.33 7.28804455e+00 1.40625309e-01 
286 1322.82 7.23579337e+00 1.10594003e-01 
285 1324.30 7.24956196e+00 1.49050252e-01 
284 1325.79 7.13589941e+00 2.07777269e-01 
283 1327.28 7.03304182e+00 2.70798929e-01 
282 1328.76 6.90165256e+00 3.64608185e-01 
281 1330.25 6.85765301e+00 4.03601761e-01 
280 1331.73 6.79637143e+00 4.00526408e-01 
279 1333.21 6.79963732e+00 3.96640512e-01 
278 1334.69 6.77888387e+00 3.87174685e-01 
277 1336.17 6.72307923e+00 3.67747601e-01 
276 1337.65 6.66350399e+00 4.09517445e-01 
275 1339.12 6.57194148e+00 3.81517473e-01 
274 1340.60 6.51122112e+00 4.86385360e-01 
273 1342.07 6.45095393e+00 5.99202615e-01 
272 1343.55 6.30868686e+00 7.29302052e-01 
271 1345.02 6.03817430e+00 1.01902028e+00 
270 1346.49 5.84813574e+00 1.17212583e+00 
269 1347.96 5.65899854e+00 1.41459558e+00 
268 1349.43 5.42871355e+00 1.63661818e+00 
267 1350.89 5.21276873e+00 1.85437227e+00 
266 1352.36 4.90659141e+00 2.29663085e+00 
265 1353.82 4.70976928e+00 2.41783618e+00 
264 1355.29 4.53569132e+00 2.84354492e+00 
263 1356.75 4.52369117e+00 3.01654818e+00 
262 1358.21 4.37186621e+00 3.46526204e+00 
261 1359.67 4.25299328e+00 3.92167033e+00 
260 1361.13 4.23074601e+00 4.19854437e+00 
259 1362.59 4.11354365e+00 3.98656257e+00 
258 1364.04 4.10392059e+00 3.61246932e+00 
257 1365.50 4.12433263e+00 3.64913064e+00 
256 1366.95 4.05009113e+00 3.69051265e+00 
255 1368.41 4.04256020e+00 3.82377747e+00 
254 1369.86 4.00411081e+00 3.59815593e+00 
253 1371.31 3.86942006e+00 2.89378968e+00 
252 1372.76 3.66937417e+00 2.55920745e+00 
251 1374.21 3.57197041e+00 2.00375902e+00 
250 1375.65 3.33520631e+00 1.74945561e+00 
249 1377.10 3.05891302e+00 1.61611849e+00 
248 1378.55 2.77074842e+00 1.70701182e+00 
247 1379.99 2.53664502e+00 1.78906513e+00 
246 1381.43 2.51801184e+00 2.20216450e+00 
245 1382.87 2.62894996e+00 2.23872544e+00 
244 1384.32 2.65771035e+00 2.01594153e+00 
243 1385.75 2.79164798e+00 1.77678274e+00 
242 1387.19 2.92686819e+00 1.48390517e+00 
241 1388.63 2.91065833e+00 1.36878914e+00 
240 1390.07 3.01850834e+00 1.33555945e+00 
239 1391.50 3.04271625e+00 1.45876028e+00 
238 1392.94 2.89991036e+00 1.89571592e+00 
237 1394.37 3.01284596e+00 1.84174869e+00 
236 1395.80 3.11912024e+00 1.75814045e+00 
235 1397.23 3.12753165e+00 1.83603741e+00 
234 1398.66 3.16918009e+00 1.81800354e+00 
233 1400.09 3.33436154e+00 1.69629481e+00 
232 1401.52 3.32737219e+00 1.94121551e+00 
231 1402.94 3.45717585e+00 1.81121132e+00 
230 1404.37 3.46973153e+00 1.81422037e+00 
229 1405.79 3.49365026e+00 1.82052390e+00 
228 1407.22 3.48789570e+00 1.84587677e+00 
227 1408.64 3.63658874e+00 1.66655285e+00 
226 1410.06 3.67948542e+00 1.63194280e+00 
225 1411.48 3.73579987e+00 1.53486452e+00 
224 1412.90 3.75727766e+00 1.50277582e+00 
223 1414.32 3.85277440e+00 1.30599610e+00 
222 1415.73 3.89740551e+00 1.39982934e+00 
221 1417.15 3.94279431e+00 1.37291637e+00 
220 1418.56 4.02910153e+00 1.30989641e+00 
219 1419.98 4.00257518e+00 1.34198379e+00 
218 1421.39 4.05268426e+00 1.22265469e+00 
217 1422.80 4.11945038e+00 1.05531354e+00 
216 1424.21 4.15147085e+00 1.05300826e+00 
215 1425.62 4.12452423e+00 1.04439697e+00 
214 1427.03 4.14812540e+00 9.51379329e-01 
213 1428.44 3.98264854e+00 9.25646501e-01 
212 1429.84 3.87595294e+00 9.68831955e-01 
211 1431.25 3.81300342e+00 8.56160643e-01 
210 1432.65 3.81561896e+00 8.85210617e-01 
209 1434.06 3.87559419e+00 9.05393615e-01 
208 1435.46 3.96166178e+00 8.73006138e-01 
207 1436.86 3.97794524e+00 8.51536102e-01 
206 1438.26 4.00146773e+00 8.30184795e-01 
205 1439.66 4.02379365e+00 7.85284923e-01 
204 1441.05 4.11076105e+00 7.15369531e-01 
203 1442.45 4.05417417e+00 7.21234369e-01 
202 1443.85 4.07924674e+00 7.35236205e-01 
201 1445.24 4.11338052e+00 6.61154861e-01 
200 1446.64 4.15191118e+00 6.87776837e-01 
199 1448.03 4.13406941e+00 7.50038238e-01 
198 1449.42 4.19783147e+00 7.06491823e-01 
197 1450.81 4.19133975e+00 6.74182612e-01 
196 1452.20 4.18633707e+00 6.04755121e-01 
195 1453.59 4.28642619e+00 4.22564480e-01 
194 1454.97 4.39201189e+00 3.21583360e-01 
193 1456.36 4.38493126e+00 2.89258510e-01 
192 1457.75 4.43086638e+00 3.00904528e-01 
191 1459.13 4.38521264e+00 3.12495771e-01 
190 1460.51 4.37396530e+00 3.76294102e-01 
189 1461.90 4.26092463e+00 4.21121497e-01 
188 1463.28 4.24949674e+00 4.99632180e-01 
187 1464.66 4.17101940e+00 5.37134794e-01 
186 1466.04 4.20379515e+00 5.57772463e-01 
185 1467.41 4.11902687e+00 6.30677959e-01 
184 1468.79 4.07955803e+00 6.47330632e-01 
183 1470.17 4.01946131e+00 6.31607352e-01 
182 1471.54 4.04516257e+00 6.17790219e-01 
181 1472.92 4.07047322e+00 5.40448740e-01 
180 1474.29 4.14270123e+00 4.63672805e-01 
179 1475.66 4.12456295e+00 4.23981220e-01 
178 1477.03 4.09324188e+00 4.63165221e-01 
177 1478.40 4.06360853e+00 4.89448542e-01 
176 1479.77 4.10685789e+00 4.66408817e-01 
175 1481.14 4.08077943e+00 4.15060367e-01 
174 1482.51 4.15219669e+00 3.84387597e-01 
173 1483.87 4.10634804e+00 3.52053297e-01 
172 1485.24 4.07006014e+00 3.26255673e-01 
171 1486.60 4.02127470e+00 3.02300253e-01 
170 1487.96 4.06710940e+00 2.81431532e-01 
169 1489.32 4.02671125e+00 2.15314688e-01 
168 1490.68 4.15932526e+00 1.83598628e-01 
167 1492.04 4.14210453e+00 1.45141435e-01 
166 1493.40 4.17642596e+00 1.35186847e-01 
165 1494.76 4.14447741e+00 1.17627588e-01 
164 1496.12 4.17607466e+00 9.97885081e-02 
163 1497.47 4.13424535e+00 6.52212410e-02 
162 1498.83 4.20635825e+00 5.22218131e-02 
161 1500.18 4.05664079e+00 5.47271869e-02 
160 1501.53 3.98420543e+00 6.13524085e-02 
159 1502.89 3.87856221e+00 5.78098997e-02 
158 1504.24 3.89795340e+00 5.96260327e-02 
157 1505.59 3.91915606e+00 5.29868079e-02 
156 1506.93 4.03399257e+00 3.21950949e-02 
155 1508.28 4.05286881e+00 2.28287028e-02 
154 1509.63 4.08246285e+00 2.10088909e-02 
153 1510.97 4.03046547e+00 1.81400937e-02 
152 1512.32 4.07375737e+00 4.29263362e-02 
151 1513.66 4.00157868e+00 2.75409375e-02 
150 1515.00 4.03862638e+00 2.88459871e-02 
149 1516.34 4.00203189e+00 3.25534272e-02 
148 1517.69 4.02739876e+00 3.81738073e-02 
147 1519.02 3.96358084e+00 4.65305276e-02 
146 1520.36 3.97424669e+00 5.22817355e-02 
145 1521.70 3.92596758e+00 5.52737809e-02 
144 1523.04 3.99567444e+00 5.45530957e-02 
143 1524.37 3.94537831e+00 6.42972581e-02 
142 1525.71 3.99328554e+00 6.00275716e-02 
141 1527.04 3.91736431e+00 6.17891389e-02 
140 1528.37 3.94020428e+00 5.77872213e-02 
139 1529.70 3.86913375e+00 5.41457961e-02 
138 1531.03 3.89027234e+00 6.97843915e-02 
137 1532.36 3.83787772e+00 6.29463923e-02 
136 1533.69 3.86453060e+00 7.69711335e-02 
135 1535.02 3.78552986e+00 7.18768770e-02 
134 1536.34 3.81877987e+00 6.23342227e-02 
133 1537.67 3.74396394e+00 5.96603892e-02 
132 1538.99 3.79077255e+00 4.05227060e-02 
131 1540.31 3.72146579e+00 6.00255021e-02 
130 1541.64 3.77130856e+00 4.77911327e-02 
129 1542.96 3.74100447e+00 4.70735066e-02 
128 1544.28 3.78654495e+00 4.33024757e-02 
127 1545.60 3.70575658e+00 5.80368141e-02 
126 1546.91 3.74694583e+00 5.58712201e-02 
125 1548.23 3.65394081e+00 5.60314555e-02 
124 1549.55 3.67450504e+00 6.74257972e-02 
123 1550.86 3.60408386e+00 5.38836877e-02 
122 1552.18 3.62115386e+00 5.39511820e-02 
121 1553.49 3.55280018e+00 6.73127281e-02 
120 1554.80 3.61694745e+00 4.70418536e-02 
119 1556.11 3.54987116e+00 4.07522786e-02 
118 1557.42 3.59040311e+00 3.68036776e-02 
117 1558.73 3.52528394e+00 3.50534769e-02 
116 1560.04 3.54865573e+00 2.29039936e-02 
115 1561.34 3.46291061e+00 2.43284360e-02 
114 1562.65 3.51580619e+00 1.98463849e-02 
113 1563.95 3.43429472e+00 2.61516464e-02 
112 1565.26 3.49014459e+00 2.97941173e-02 
111 1566.56 3.38035139e+00 2.80322931e-02 
110 1567.86 3.40430251e+00 2.24951490e-02 
109 1569.16 3.30945086e+00 2.36985491e-02 
108 1570.46 3.30866226e+00 2.84499594e-02 
107 1571.76 3.21017171e+00 3.12750433e-02 
106 1573.05 3.19496889e+00 3.49708166e-02 
105 1574.35 3.08254397e+00 3.49563508e-02 
104 1575.64 3.10470974e+00 4.13417494e-02 
103 1576.94 3.06401081e+00 3.85147475e-02 
102 1578.23 3.13558131e+00 3.56283310e-02 
101 1579.52 3.09782909e+00 3.23149073e-02 
100 1580.81 3.16626497e+00 2.38037085e-02 
99 1582.10 3.10016643e+00 2.42041792e-02 
98 1583.39 3.16486486e+00 1.99683212e-02 
97 1584.68 3.08808320e+00 2.41938252e-02 
96 1585.97 3.08283271e+00 2.57108149e-02 
95 1587.25 2.98351969e+00 2.04430377e-02 
94 1588.54 2.99383858e+00 3.30348432e-02 
93 1589.82 2.93880075e+00 3.32082612e-02 
92 1591.10 3.03682831e+00 3.14521160e-02 
91 1592.38 2.99531692e+00 3.77958374e-02 
90 1593.66 3.06544939e+00 2.67200705e-02 
89 1594.94 2.99357320e+00 2.08439304e-02 
88 1596.22 3.03313214e+00 1.89852218e-02 
87 1597.50 2.93881435e+00 1.50189839e-02 
86 1598.77 2.96110126e+00 1.55488491e-02 
85 1600.05 2.86854318e+00 2.36213023e-02 
84 1601.32 2.89725592e+00 2.39261046e-02 
83 1602.59 2.80477661e+00 1.68263038e-02 
82 1603.86 2.87357038e+00 2.49896819e-02 
81 1605.13 2.75311457e+00 8.83757785e-03 
80 1606.40 2.80842051e+00 1.04524171e-02 
79 1607.67 2.70882416e+00 7.74253751e-03 
78 1608.94 2.75419529e+00 9.78782755e-03 
77 1610.20 2.69681119e+00 9.47702356e-03 
76 1611.47 2.75195816e+00 1.74037830e-02 
75 1612.73 2.68395624e+00 2.50117844e-02 
74 1614.00 2.72373194e+00 4.01272178e-02 
73 1615.26 2.64647438e+00 4.52337745e-02 
72 1616.52 2.66689149e+00 4.53397265e-02 
71 1617.78 2.55909521e+00 5.78712436e-02 
70 1619.03 2.60357882e+00 4.33837294e-02 
69 1620.29 2.54012398e+00 4.26216244e-02 
