% C0 (TOA Count Rate, /ms) for 4STAR VIS spectrometer (1044 channels) derived from 4STAR_20160902starsun.mat and recorded on 2017-05-23 19:38:21.
% Using the MLO from September 2016 high altitude AOD for stratospheric AOD component, calculating the c0 from the AOD at low airmass. 
Pix Wavelength C0 C0err
0 173.18 0.00000000e+00 0.00000000e+00 
1 173.98 -1.00000000e+00 0.00000000e+00 
2 174.77 -1.00000000e+00 0.00000000e+00 
3 175.56 -1.00000000e+00 0.00000000e+00 
4 176.36 -1.00000000e+00 0.00000000e+00 
5 177.15 -1.00000000e+00 0.00000000e+00 
6 177.94 -1.00000000e+00 0.00000000e+00 
7 178.74 -1.00000000e+00 0.00000000e+00 
8 179.53 -1.00000000e+00 0.00000000e+00 
9 180.33 -1.00000000e+00 0.00000000e+00 
10 181.12 -1.00000000e+00 0.00000000e+00 
11 181.92 -1.00000000e+00 0.00000000e+00 
12 182.71 -1.00000000e+00 0.00000000e+00 
13 183.51 -1.00000000e+00 0.00000000e+00 
14 184.30 -1.00000000e+00 0.00000000e+00 
15 185.10 -1.00000000e+00 0.00000000e+00 
16 185.89 -1.00000000e+00 0.00000000e+00 
17 186.69 -1.00000000e+00 0.00000000e+00 
18 187.49 -1.00000000e+00 0.00000000e+00 
19 188.28 -1.00000000e+00 0.00000000e+00 
20 189.08 -1.00000000e+00 0.00000000e+00 
21 189.88 -1.00000000e+00 0.00000000e+00 
22 190.67 -1.00000000e+00 0.00000000e+00 
23 191.47 -1.00000000e+00 0.00000000e+00 
24 192.27 -1.00000000e+00 0.00000000e+00 
25 193.07 -1.00000000e+00 0.00000000e+00 
26 193.86 -1.00000000e+00 0.00000000e+00 
27 194.66 -1.00000000e+00 0.00000000e+00 
28 195.46 -1.00000000e+00 0.00000000e+00 
29 196.26 -1.00000000e+00 0.00000000e+00 
30 197.05 -1.00000000e+00 0.00000000e+00 
31 197.85 -1.00000000e+00 0.00000000e+00 
32 198.65 -1.00000000e+00 0.00000000e+00 
33 199.45 -1.00000000e+00 0.00000000e+00 
34 200.25 -1.00000000e+00 0.00000000e+00 
35 201.05 -1.00000000e+00 0.00000000e+00 
36 201.85 -1.00000000e+00 0.00000000e+00 
37 202.65 -1.00000000e+00 0.00000000e+00 
38 203.44 -1.00000000e+00 0.00000000e+00 
39 204.24 -1.00000000e+00 0.00000000e+00 
40 205.04 -1.00000000e+00 0.00000000e+00 
41 205.84 -1.00000000e+00 0.00000000e+00 
42 206.64 -1.00000000e+00 0.00000000e+00 
43 207.44 -1.00000000e+00 0.00000000e+00 
44 208.24 -1.00000000e+00 0.00000000e+00 
45 209.04 -1.00000000e+00 0.00000000e+00 
46 209.84 -1.00000000e+00 0.00000000e+00 
47 210.64 -1.00000000e+00 0.00000000e+00 
48 211.44 -1.00000000e+00 -1.00000000e+00 
49 212.24 -1.00000000e+00 -1.00000000e+00 
50 213.04 8.43743248e+35 -1.00000000e+00 
51 213.85 1.01268467e+35 -1.00000000e+00 
52 214.65 1.27032443e+34 -1.00000000e+00 
53 215.45 1.53844704e+33 -1.00000000e+00 
54 216.25 1.84705838e+32 -1.00000000e+00 
55 217.05 2.30367972e+31 -1.00000000e+00 
56 217.85 2.82352453e+30 -1.00000000e+00 
57 218.65 3.49348810e+29 -1.00000000e+00 
58 219.46 4.34906152e+28 -1.00000000e+00 
59 220.26 5.34345153e+27 -1.00000000e+00 
60 221.06 6.64284299e+26 -1.00000000e+00 
61 221.86 8.27964122e+25 -1.00000000e+00 
62 222.66 1.02504060e+25 -1.00000000e+00 
63 223.47 1.27157168e+24 -1.00000000e+00 
64 224.27 1.56940593e+23 -1.00000000e+00 
65 225.07 1.93609523e+22 -1.00000000e+00 
66 225.87 2.49673624e+21 -1.00000000e+00 
67 226.68 3.15866258e+20 -1.00000000e+00 
68 227.48 4.11020932e+19 -1.00000000e+00 
69 228.28 6.21943205e+18 4.94083967e+17 
70 229.08 1.33180655e+18 1.07900754e+17 
71 229.89 5.36419803e+17 4.34614097e+16 
72 230.69 5.07642079e+17 3.86603922e+16 
73 231.49 1.25679704e+18 1.05372324e+17 
74 232.30 6.51507973e+18 5.63302794e+17 
75 233.10 5.27636763e+19 -1.00000000e+00 
76 233.90 5.19019380e+20 -1.00000000e+00 
77 234.71 5.59222437e+21 -1.00000000e+00 
78 235.51 6.29011230e+22 -1.00000000e+00 
79 236.32 7.26876440e+23 -1.00000000e+00 
80 237.12 8.34739035e+24 -1.00000000e+00 
81 237.92 9.93172978e+25 -1.00000000e+00 
82 238.73 1.17091859e+27 -1.00000000e+00 
83 239.53 1.39137834e+28 -1.00000000e+00 
84 240.34 1.59332570e+29 -1.00000000e+00 
85 241.14 1.71796338e+30 -1.00000000e+00 
86 241.94 1.66197984e+31 -1.00000000e+00 
87 242.75 1.50544089e+32 -1.00000000e+00 
88 243.55 1.32912825e+33 -1.00000000e+00 
89 244.36 1.01234063e+34 -1.00000000e+00 
90 245.16 7.03362224e+34 -1.00000000e+00 
91 245.97 4.42372901e+35 -1.00000000e+00 
92 246.77 -1.00000000e+00 -1.00000000e+00 
93 247.58 -1.00000000e+00 -1.00000000e+00 
94 248.38 -1.00000000e+00 -1.00000000e+00 
95 249.19 -1.00000000e+00 -1.00000000e+00 
96 249.99 -1.00000000e+00 0.00000000e+00 
97 250.80 -1.00000000e+00 0.00000000e+00 
98 251.60 -1.00000000e+00 0.00000000e+00 
99 252.41 -1.00000000e+00 0.00000000e+00 
100 253.21 -1.00000000e+00 0.00000000e+00 
101 254.02 -1.00000000e+00 0.00000000e+00 
102 254.82 -1.00000000e+00 0.00000000e+00 
103 255.63 -1.00000000e+00 0.00000000e+00 
104 256.44 -1.00000000e+00 0.00000000e+00 
105 257.24 -1.00000000e+00 0.00000000e+00 
106 258.05 -1.00000000e+00 0.00000000e+00 
107 258.85 -1.00000000e+00 0.00000000e+00 
108 259.66 -1.00000000e+00 0.00000000e+00 
109 260.46 -1.00000000e+00 -1.00000000e+00 
110 261.27 -1.00000000e+00 -1.00000000e+00 
111 262.08 -1.00000000e+00 -1.00000000e+00 
112 262.88 1.08829911e+36 -1.00000000e+00 
113 263.69 1.65919202e+35 -1.00000000e+00 
114 264.49 2.64209309e+34 -1.00000000e+00 
115 265.30 3.59842213e+33 -1.00000000e+00 
116 266.11 3.86738116e+32 -1.00000000e+00 
117 266.91 3.75236019e+31 -1.00000000e+00 
118 267.72 3.14467386e+30 -1.00000000e+00 
119 268.53 2.17080878e+29 -1.00000000e+00 
120 269.33 1.70822682e+28 -1.00000000e+00 
121 270.14 1.51639984e+27 -1.00000000e+00 
122 270.95 1.28499097e+26 -1.00000000e+00 
123 271.75 9.70184830e+24 -1.00000000e+00 
124 272.56 6.72603093e+23 -1.00000000e+00 
125 273.37 4.14852367e+22 -1.00000000e+00 
126 274.17 2.50622899e+21 -1.00000000e+00 
127 274.98 1.80787595e+20 -1.00000000e+00 
128 275.79 1.41220768e+19 1.12820043e+18 
129 276.59 1.26306027e+18 9.39046839e+16 
130 277.40 1.14661943e+17 8.83503603e+15 
131 278.21 1.01938418e+16 6.87879076e+14 
132 279.01 9.68298565e+14 5.86003996e+13 
133 279.82 9.67973305e+13 6.49051714e+12 
134 280.63 9.78495891e+12 6.13420958e+11 
135 281.43 1.02232909e+12 5.97880095e+10 
136 282.24 1.31509387e+11 6.93736243e+09 
137 283.05 1.99616573e+10 1.08225894e+09 
138 283.86 3.33061581e+09 1.75874800e+08 
139 284.66 5.71081152e+08 3.00758220e+07 
140 285.47 1.05955376e+08 5.42240500e+06 
141 286.28 2.42792220e+07 1.31983500e+06 
142 287.09 6.00358250e+06 2.74537500e+05 
143 287.89 1.43805088e+06 7.22777734e+04 
144 288.70 4.04534219e+05 1.94371309e+04 
145 289.51 1.27524547e+05 5.59688965e+03 
146 290.32 4.48970078e+04 2.16774487e+03 
147 291.12 1.61447764e+04 7.53706421e+02 
148 291.93 6.24167871e+03 2.86525452e+02 
149 292.74 2.62777710e+03 1.14519272e+02 
150 293.55 1.21804919e+03 5.38875465e+01 
151 294.35 5.94562744e+02 2.28801537e+01 
152 295.16 3.07902863e+02 1.34281015e+01 
153 295.97 1.68902832e+02 6.88691330e+00 
154 296.78 9.68593826e+01 4.04561567e+00 
155 297.58 5.72529373e+01 2.44968915e+00 
156 298.39 3.66782570e+01 1.53327453e+00 
157 299.20 2.47536068e+01 9.90639925e-01 
158 300.01 1.73356571e+01 7.53618538e-01 
159 300.81 1.25389128e+01 5.08159935e-01 
160 301.62 9.37315464e+00 3.76725137e-01 
161 302.43 7.24972010e+00 2.95293212e-01 
162 303.24 5.65832806e+00 2.38788515e-01 
163 304.04 4.68531513e+00 1.85030177e-01 
164 304.85 3.83411789e+00 1.54662207e-01 
165 305.66 3.23632813e+00 1.31811112e-01 
166 306.47 2.75433302e+00 1.18939310e-01 
167 307.28 2.43684578e+00 9.01189372e-02 
168 308.08 2.12773156e+00 9.26511586e-02 
169 308.89 1.96529531e+00 7.48985261e-02 
170 309.70 1.78602839e+00 6.87963068e-02 
171 310.51 1.60512197e+00 6.66749924e-02 
172 311.32 1.51259792e+00 5.49557470e-02 
173 312.12 1.38513231e+00 5.52361570e-02 
174 312.93 1.31181061e+00 4.39965948e-02 
175 313.74 1.25240910e+00 5.11012636e-02 
176 314.55 1.17674446e+00 4.76285592e-02 
177 315.36 1.15249622e+00 4.34477925e-02 
178 316.16 1.12964439e+00 4.61592302e-02 
179 316.97 1.10447598e+00 4.06033397e-02 
180 317.78 1.09200692e+00 4.22614254e-02 
181 318.59 1.06136715e+00 4.06979546e-02 
182 319.40 1.05818260e+00 3.80346812e-02 
183 320.20 1.05768013e+00 3.48009542e-02 
184 321.01 1.05109680e+00 3.70010585e-02 
185 321.82 1.05967295e+00 3.69227715e-02 
186 322.63 1.06636727e+00 3.73971649e-02 
187 323.43 1.05089664e+00 3.09252515e-02 
188 324.24 1.05848491e+00 3.50727439e-02 
189 325.05 1.07890904e+00 3.13211717e-02 
190 325.86 1.10338175e+00 3.22456844e-02 
191 326.67 1.10429370e+00 3.21970694e-02 
192 327.48 1.12562358e+00 3.38907503e-02 
193 328.28 1.15576065e+00 2.97887921e-02 
194 329.09 1.17385447e+00 3.31249163e-02 
195 329.90 1.21172702e+00 3.33684087e-02 
196 330.71 1.28338790e+00 3.25138383e-02 
197 331.52 1.34520793e+00 3.28502692e-02 
198 332.32 1.51190019e+00 3.25203314e-02 
199 333.13 1.78810668e+00 3.21911313e-02 
200 333.94 2.28027010e+00 3.47709879e-02 
201 334.75 3.06027794e+00 4.27212380e-02 
202 335.55 4.11753464e+00 4.52035293e-02 
203 336.36 5.61533689e+00 4.43189554e-02 
204 337.17 7.95786285e+00 5.26437797e-02 
205 337.98 1.11913080e+01 6.16133437e-02 
206 338.79 1.49746313e+01 7.73616657e-02 
207 339.60 1.92295494e+01 8.47706124e-02 
208 340.40 2.30112019e+01 1.01442315e-01 
209 341.21 2.61898994e+01 9.23251659e-02 
210 342.02 2.99409389e+01 1.05438225e-01 
211 342.83 3.32791252e+01 1.15146838e-01 
212 343.63 3.40790520e+01 1.09889723e-01 
213 344.44 3.53755379e+01 1.11247219e-01 
214 345.25 3.92700233e+01 1.21834032e-01 
215 346.06 4.29169312e+01 1.16750687e-01 
216 346.87 4.52682266e+01 1.19028024e-01 
217 347.67 4.69597244e+01 1.23198211e-01 
218 348.48 4.85620308e+01 1.24772735e-01 
219 349.29 5.14857903e+01 1.41973898e-01 
220 350.10 5.64808807e+01 1.38507977e-01 
221 350.90 5.97659874e+01 1.43458426e-01 
222 351.71 5.98692055e+01 1.36768505e-01 
223 352.52 6.10572968e+01 1.32696226e-01 
224 353.33 6.64490662e+01 1.49306983e-01 
225 354.14 7.30700455e+01 1.64285511e-01 
226 354.94 7.59150772e+01 1.65802971e-01 
227 355.75 7.44378052e+01 1.49004161e-01 
228 356.56 7.00365829e+01 1.53710067e-01 
229 357.37 6.57911530e+01 1.50475755e-01 
230 358.18 6.50598907e+01 1.50796950e-01 
231 358.98 7.31255951e+01 1.47568017e-01 
232 359.79 8.40899811e+01 1.73171401e-01 
233 360.60 8.53509140e+01 1.73836544e-01 
234 361.41 8.41248932e+01 1.68029025e-01 
235 362.21 8.86935501e+01 1.57521382e-01 
236 363.02 9.38685760e+01 1.63443089e-01 
237 363.83 9.69742661e+01 1.85575306e-01 
238 364.64 1.01863342e+02 2.01594785e-01 
239 365.44 1.11013367e+02 2.02207446e-01 
240 366.25 1.18831322e+02 1.96817994e-01 
241 367.06 1.19813591e+02 2.04342872e-01 
242 367.87 1.18009537e+02 1.94484308e-01 
243 368.67 1.19892334e+02 2.10477337e-01 
244 369.48 1.25021332e+02 2.09007114e-01 
245 370.29 1.26197121e+02 2.02958554e-01 
246 371.10 1.24780785e+02 1.90722167e-01 
247 371.90 1.21619072e+02 1.94514066e-01 
248 372.71 1.14887093e+02 1.84637144e-01 
249 373.52 1.08659531e+02 1.83146656e-01 
250 374.33 1.08363686e+02 1.92602724e-01 
251 375.13 1.16079788e+02 1.84149936e-01 
252 375.94 1.26486397e+02 1.97183177e-01 
253 376.75 1.37872498e+02 2.02662334e-01 
254 377.56 1.50630768e+02 2.36957639e-01 
255 378.36 1.53908417e+02 2.35873610e-01 
256 379.17 1.46156815e+02 2.09897071e-01 
257 379.98 1.43077026e+02 2.20862538e-01 
258 380.78 1.42557678e+02 2.13101104e-01 
259 381.59 1.29886215e+02 1.97709531e-01 
260 382.40 1.10704262e+02 1.87941685e-01 
261 383.20 1.02179596e+02 1.81766391e-01 
262 384.01 1.11013947e+02 1.90386549e-01 
263 384.82 1.25302299e+02 2.05272302e-01 
264 385.63 1.31230072e+02 2.11990520e-01 
265 386.43 1.32316559e+02 2.02040240e-01 
266 387.24 1.33104492e+02 2.22122312e-01 
267 388.05 1.35278580e+02 2.15731397e-01 
268 388.85 1.43373703e+02 2.07078412e-01 
269 389.66 1.56456543e+02 2.15329409e-01 
270 390.47 1.66767883e+02 2.45083854e-01 
271 391.27 1.66996506e+02 2.42440119e-01 
272 392.08 1.48554642e+02 2.13688567e-01 
273 392.89 1.20845024e+02 1.90640807e-01 
274 393.69 1.14959526e+02 1.80189595e-01 
275 394.50 1.36814850e+02 1.99691162e-01 
276 395.31 1.52130554e+02 2.12827504e-01 
277 396.11 1.41828613e+02 1.96454510e-01 
278 396.92 1.34972900e+02 2.05689549e-01 
279 397.73 1.59364944e+02 2.19213754e-01 
280 398.53 1.95917542e+02 2.58331001e-01 
281 399.34 2.19073364e+02 2.65064806e-01 
282 400.15 2.30268936e+02 2.80088723e-01 
283 400.95 2.38058365e+02 2.75860488e-01 
284 401.76 2.44162567e+02 2.88998395e-01 
285 402.57 2.45818619e+02 2.83211470e-01 
286 403.37 2.44252960e+02 2.87166685e-01 
287 404.18 2.43005234e+02 2.69422024e-01 
288 404.99 2.41813889e+02 2.75152832e-01 
289 405.79 2.40597092e+02 2.75015920e-01 
290 406.60 2.41478577e+02 2.83416778e-01 
291 407.40 2.47576447e+02 2.84179330e-01 
292 408.21 2.56677368e+02 2.90670961e-01 
293 409.02 2.59953613e+02 3.20831716e-01 
294 409.82 2.56989777e+02 3.03509742e-01 
295 410.63 2.60059387e+02 2.90377319e-01 
296 411.43 2.70834259e+02 3.16168636e-01 
297 412.24 2.77984589e+02 3.39316368e-01 
298 413.05 2.78654297e+02 3.30062389e-01 
299 413.85 2.78256317e+02 3.20997775e-01 
300 414.66 2.78516205e+02 2.84415066e-01 
301 415.46 2.79271606e+02 3.02418351e-01 
302 416.27 2.78952881e+02 3.15924257e-01 
303 417.08 2.75167572e+02 3.08639020e-01 
304 417.88 2.70241791e+02 3.38276088e-01 
305 418.69 2.67944519e+02 3.21676284e-01 
306 419.49 2.68611481e+02 2.88444579e-01 
307 420.30 2.72044373e+02 3.35543990e-01 
308 421.11 2.74906494e+02 3.00772369e-01 
309 421.91 2.72738342e+02 3.03996593e-01 
310 422.72 2.68517456e+02 3.01433295e-01 
311 423.52 2.68512848e+02 3.02169263e-01 
312 424.33 2.71744812e+02 3.09873402e-01 
313 425.13 2.73984222e+02 2.89947838e-01 
314 425.94 2.74414246e+02 3.20584923e-01 
315 426.74 2.74480408e+02 2.76729465e-01 
316 427.55 2.74451630e+02 2.99899310e-01 
317 428.36 2.71161499e+02 3.25999796e-01 
318 429.16 2.60914215e+02 3.20950508e-01 
319 429.96 2.50734985e+02 3.05417597e-01 
320 430.77 2.58567017e+02 3.01189989e-01 
321 431.58 2.86060547e+02 3.37210596e-01 
322 432.38 3.14455811e+02 3.27705830e-01 
323 433.19 3.28672791e+02 3.67470771e-01 
324 433.99 3.36960419e+02 3.72110963e-01 
325 434.80 3.51287201e+02 3.56679052e-01 
326 435.60 3.70661896e+02 3.99069250e-01 
327 436.41 3.83805450e+02 4.11496073e-01 
328 437.21 3.84414673e+02 4.09743011e-01 
329 438.02 3.80176300e+02 3.50957334e-01 
330 438.82 3.82765015e+02 3.66201282e-01 
331 439.63 3.94414368e+02 3.88498038e-01 
332 440.43 4.11595032e+02 4.04837400e-01 
333 441.24 4.29349121e+02 4.26387519e-01 
334 442.04 4.45088013e+02 4.24030125e-01 
335 442.85 4.56318024e+02 4.08655107e-01 
336 443.65 4.62952393e+02 4.10308093e-01 
337 444.45 4.65318909e+02 4.57764030e-01 
338 445.26 4.65221497e+02 4.16778833e-01 
339 446.06 4.69233551e+02 4.52796727e-01 
340 446.87 4.80058197e+02 4.11130369e-01 
341 447.67 4.93838257e+02 4.55457360e-01 
342 448.48 5.04711975e+02 4.30421144e-01 
343 449.28 5.14912659e+02 4.55233574e-01 
344 450.09 5.25940918e+02 4.61081922e-01 
345 450.89 5.31859741e+02 4.67815608e-01 
346 451.70 5.27103882e+02 4.50836599e-01 
347 452.50 5.17280334e+02 4.68918920e-01 
348 453.30 5.12456543e+02 4.53149706e-01 
349 454.11 5.15280396e+02 4.44367409e-01 
350 454.91 5.23421570e+02 4.47476566e-01 
351 455.72 5.32210693e+02 4.60315168e-01 
352 456.52 5.39178589e+02 4.54769701e-01 
353 457.32 5.42047241e+02 4.85739022e-01 
354 458.13 5.40802429e+02 4.83399719e-01 
355 458.93 5.39914551e+02 5.04322767e-01 
356 459.74 5.43302185e+02 4.82359946e-01 
357 460.54 5.50528137e+02 4.85618562e-01 
358 461.34 5.58456848e+02 5.02880752e-01 
359 462.15 5.63580322e+02 4.93555158e-01 
360 462.95 5.63376892e+02 4.70582724e-01 
361 463.76 5.59604553e+02 5.06431520e-01 
362 464.56 5.55748352e+02 4.77364689e-01 
363 465.36 5.53072815e+02 5.13100803e-01 
364 466.17 5.51911011e+02 4.73802596e-01 
365 466.97 5.53023010e+02 5.18482268e-01 
366 467.77 5.55872192e+02 4.61584240e-01 
367 468.58 5.58916809e+02 4.68957603e-01 
368 469.38 5.59548157e+02 4.81659502e-01 
369 470.18 5.60587158e+02 4.98384476e-01 
370 470.99 5.66204407e+02 5.16782641e-01 
371 471.79 5.74620728e+02 4.70163912e-01 
372 472.59 5.82128540e+02 5.19450545e-01 
373 473.40 5.87519531e+02 5.59971690e-01 
374 474.20 5.90912903e+02 5.07912993e-01 
375 475.00 5.93151489e+02 4.83687460e-01 
376 475.81 5.95281311e+02 5.44438958e-01 
377 476.61 5.99105835e+02 4.90734816e-01 
378 477.41 6.05181885e+02 5.00961125e-01 
379 478.21 6.11182373e+02 4.58370119e-01 
380 479.02 6.15330872e+02 5.21361351e-01 
381 479.82 6.17729309e+02 5.24957478e-01 
382 480.62 6.20565857e+02 5.47150195e-01 
383 481.43 6.21852783e+02 5.17724812e-01 
384 482.23 6.20736328e+02 5.31165302e-01 
385 483.03 6.16246277e+02 5.12610018e-01 
386 483.84 6.05865601e+02 5.12949109e-01 
387 484.64 5.86268188e+02 5.06294370e-01 
388 485.44 5.63478271e+02 5.05217910e-01 
389 486.24 5.50790344e+02 4.68983650e-01 
390 487.04 5.53934509e+02 4.62708771e-01 
391 487.85 5.69892822e+02 4.72495914e-01 
392 488.65 5.88926636e+02 5.26261806e-01 
393 489.45 6.01722168e+02 5.24957299e-01 
394 490.26 6.05891357e+02 4.94171739e-01 
395 491.06 6.03963196e+02 4.80529934e-01 
396 491.86 6.00274658e+02 5.07020652e-01 
397 492.66 6.00382629e+02 4.81750399e-01 
398 493.46 6.06525146e+02 5.00840127e-01 
399 494.27 6.13650940e+02 4.91702080e-01 
400 495.07 6.17576294e+02 5.02188146e-01 
401 495.87 6.19296326e+02 5.13286471e-01 
402 496.67 6.16897339e+02 4.80226517e-01 
403 497.48 6.12537964e+02 5.22169292e-01 
404 498.28 6.08234314e+02 5.28297067e-01 
405 499.08 6.02550537e+02 5.11494339e-01 
406 499.88 5.96325867e+02 5.02642512e-01 
407 500.68 5.91145508e+02 5.16955674e-01 
408 501.48 5.88755798e+02 5.18425345e-01 
409 502.29 5.90807312e+02 5.22586048e-01 
410 503.09 5.94995667e+02 5.31873345e-01 
411 503.89 6.00724182e+02 5.16495109e-01 
412 504.69 6.07234436e+02 5.07922769e-01 
413 505.49 6.12083862e+02 5.01027644e-01 
414 506.29 6.13138855e+02 5.34922957e-01 
415 507.09 6.10509033e+02 4.77788866e-01 
416 507.90 6.07374634e+02 4.61468041e-01 
417 508.70 6.06232971e+02 4.64122683e-01 
418 509.50 6.07031982e+02 5.06666899e-01 
419 510.30 6.08413818e+02 4.90410149e-01 
420 511.10 6.07414307e+02 4.87685710e-01 
421 511.90 6.03410522e+02 4.95191246e-01 
422 512.71 5.97009888e+02 4.99790967e-01 
423 513.51 5.89991211e+02 4.85713005e-01 
424 514.31 5.84098206e+02 4.85551447e-01 
425 515.11 5.74794678e+02 5.33474207e-01 
426 515.91 5.59941284e+02 4.71556544e-01 
427 516.71 5.45145203e+02 5.13224125e-01 
428 517.51 5.36727844e+02 4.90023494e-01 
429 518.31 5.40326843e+02 4.60588962e-01 
430 519.11 5.53335388e+02 4.39177245e-01 
431 519.91 5.66689697e+02 4.77692664e-01 
432 520.71 5.76637451e+02 4.75000143e-01 
433 521.52 5.80836853e+02 4.73522156e-01 
434 522.32 5.83297302e+02 4.96137500e-01 
435 523.12 5.87385132e+02 5.03444254e-01 
436 523.92 5.91248169e+02 4.94533181e-01 
437 524.72 5.90588379e+02 5.02936721e-01 
438 525.52 5.82230347e+02 4.74386215e-01 
439 526.32 5.72488892e+02 4.89607990e-01 
440 527.12 5.70714722e+02 4.79799747e-01 
441 527.92 5.78164795e+02 4.43851113e-01 
442 528.72 5.90978394e+02 4.96970087e-01 
443 529.52 6.02324341e+02 5.23005903e-01 
444 530.32 6.07244995e+02 4.94155943e-01 
445 531.12 6.04885010e+02 5.05957127e-01 
446 531.92 5.99192810e+02 5.28098047e-01 
447 532.72 5.93984314e+02 5.57558835e-01 
448 533.52 5.93289185e+02 5.12784421e-01 
449 534.32 5.97633850e+02 5.29396474e-01 
450 535.12 6.02073914e+02 5.35530746e-01 
451 535.92 6.02770874e+02 5.13706565e-01 
452 536.72 6.01152954e+02 5.12170911e-01 
453 537.52 5.98151855e+02 4.69883770e-01 
454 538.32 5.93809631e+02 5.19669175e-01 
455 539.12 5.88679565e+02 5.18417716e-01 
456 539.92 5.84148315e+02 4.89973336e-01 
457 540.72 5.82548950e+02 4.78459835e-01 
458 541.52 5.84359802e+02 4.87458557e-01 
459 542.32 5.88848938e+02 5.00782073e-01 
460 543.12 5.93290649e+02 4.97651547e-01 
461 543.92 5.96338440e+02 5.05443990e-01 
462 544.72 5.98302368e+02 5.34443796e-01 
463 545.52 5.98044495e+02 5.02373576e-01 
464 546.32 5.95289185e+02 5.43920875e-01 
465 547.12 5.92044312e+02 5.49168050e-01 
466 547.91 5.90082458e+02 5.16256869e-01 
467 548.71 5.89522156e+02 5.00811517e-01 
