% C0 (TOA Count Rate, /ms) for 4STAR VIS spectrometer (1044 channels) derived from 20160110starsun.mat and recorded on 2016-01-10 19:42:08.
% Data outside 2.0x the STD of 501 nm Langley residuals were screened out.
Pix Wavelength C0 C0err
0 173.18 -1.00000000e+00 -1.00000000e+00 
1 173.97 1.22580806e+03 3.67742417e+01 
2 174.77 4.72673109e+02 1.41801933e+01 
3 175.56 1.71645928e+03 5.14937784e+01 
4 176.36 1.01676719e+05 3.05030157e+03 
5 177.15 1.24066509e+05 3.72199526e+03 
6 177.94 1.37656062e+05 4.12968186e+03 
7 178.74 1.56296835e+05 4.68890505e+03 
8 179.53 1.76643065e+05 5.29929196e+03 
9 180.33 2.05276964e+05 6.15830893e+03 
10 181.12 2.35881451e+05 7.07644354e+03 
11 181.92 2.69716169e+05 8.09148508e+03 
12 182.71 3.18037007e+05 9.54111021e+03 
13 183.51 3.72621629e+05 1.11786489e+04 
14 184.30 4.32846417e+05 1.29853925e+04 
15 185.10 5.15199551e+05 1.54559865e+04 
16 185.89 6.06210016e+05 1.81863005e+04 
17 186.69 7.25825433e+05 2.17747630e+04 
18 187.49 8.50224503e+05 2.55067351e+04 
19 188.28 1.01672942e+06 3.05018827e+04 
20 189.08 1.23660102e+06 3.70980305e+04 
21 189.88 1.50647222e+06 4.51941666e+04 
22 190.67 1.88438616e+06 5.65315849e+04 
23 191.47 2.32503183e+06 6.97509550e+04 
24 192.27 2.87889603e+06 8.63668809e+04 
25 193.07 3.63606976e+06 1.09082093e+05 
26 193.86 4.34664020e+06 1.30399206e+05 
27 194.66 5.69930321e+06 1.70979096e+05 
28 195.46 7.05552077e+06 2.11665623e+05 
29 196.26 9.72968462e+06 2.91890539e+05 
30 197.05 1.29966118e+07 3.89898355e+05 
31 197.85 1.70562749e+07 5.11688247e+05 
32 198.65 2.41438380e+07 7.24315140e+05 
33 199.45 3.41789546e+07 1.02536864e+06 
34 200.25 4.74534442e+07 1.42360333e+06 
35 201.05 6.93360170e+07 2.08008051e+06 
36 201.85 1.03040698e+08 3.09122094e+06 
37 202.64 1.36986496e+08 4.10959488e+06 
38 203.44 2.06277391e+08 6.18832174e+06 
39 204.24 2.98254671e+08 8.94764013e+06 
40 205.04 4.89896749e+08 1.46969025e+07 
41 205.84 7.86943042e+08 2.36082913e+07 
42 206.64 1.15751708e+09 3.47255123e+07 
43 207.44 1.09792336e+09 3.29377008e+07 
44 208.24 8.52938669e+08 2.55881601e+07 
45 209.04 6.36664811e+08 1.90999443e+07 
46 209.84 3.92788388e+08 1.17836516e+07 
47 210.64 2.46866003e+08 7.40598010e+06 
48 211.44 1.52269376e+08 4.56808129e+06 
49 212.24 9.41406687e+07 2.82422006e+06 
50 213.05 5.88349321e+07 1.76504796e+06 
51 213.85 3.65693385e+07 1.09708016e+06 
52 214.65 2.26889054e+07 6.80667161e+05 
53 215.45 1.40666030e+07 4.21998090e+05 
54 216.25 8.78428625e+06 2.63528587e+05 
55 217.05 5.52054557e+06 1.65616367e+05 
56 217.85 3.45207811e+06 1.03562343e+05 
57 218.65 2.11915821e+06 6.35747463e+04 
58 219.46 1.31574484e+06 3.94723451e+04 
59 220.26 8.14844589e+05 2.44453377e+04 
60 221.06 5.12080613e+05 1.53624184e+04 
61 221.86 3.18154305e+05 9.54462915e+03 
62 222.66 1.99789079e+05 5.99367237e+03 
63 223.47 1.22402401e+05 3.67207204e+03 
64 224.27 7.62252601e+04 2.28675780e+03 
65 225.07 4.71595455e+04 1.41478637e+03 
66 225.87 2.97886132e+04 8.93658395e+02 
67 226.68 1.88283141e+04 5.64849422e+02 
68 227.48 1.18357462e+04 3.55072386e+02 
69 228.28 7.71365816e+03 2.31409745e+02 
70 229.09 5.48344249e+03 1.64503275e+02 
71 229.89 4.41172885e+03 1.32351865e+02 
72 230.69 4.40177920e+03 1.32053376e+02 
73 231.49 5.38291243e+03 1.61487373e+02 
74 232.30 7.76777588e+03 2.33033276e+02 
75 233.10 1.24949454e+04 3.74848361e+02 
76 233.91 2.11150893e+04 6.33452678e+02 
77 234.71 3.67276771e+04 1.10183031e+03 
78 235.51 6.44179275e+04 1.93253782e+03 
79 236.32 1.10522362e+05 3.31567087e+03 
80 237.12 1.93253174e+05 5.79759523e+03 
81 237.92 3.42595184e+05 1.02778555e+04 
82 238.73 6.05873525e+05 1.81762058e+04 
83 239.53 1.05785310e+06 3.17355931e+04 
84 240.34 1.83301782e+06 5.49905346e+04 
85 241.14 3.16239182e+06 9.48717546e+04 
86 241.94 5.34786895e+06 1.60436068e+05 
87 242.75 8.91186481e+06 2.67355944e+05 
88 243.55 1.44068892e+07 4.32206677e+05 
89 244.36 2.32438616e+07 6.97315849e+05 
90 245.16 3.55285183e+07 1.06585555e+06 
91 245.97 5.43561565e+07 1.63068469e+06 
92 246.77 7.98211363e+07 2.39463409e+06 
93 247.58 1.14432266e+08 3.43296799e+06 
94 248.38 1.62298442e+08 4.86895326e+06 
95 249.19 2.22862358e+08 6.68587075e+06 
96 249.99 2.87114520e+08 8.61343559e+06 
97 250.80 3.49897683e+08 1.04969305e+07 
98 251.60 4.08827946e+08 1.22648384e+07 
99 252.41 4.80853241e+08 1.44255972e+07 
100 253.21 5.35629810e+08 1.60688943e+07 
101 254.02 5.73362499e+08 1.72008750e+07 
102 254.83 5.92468187e+08 1.77740456e+07 
103 255.63 5.97576930e+08 1.79273079e+07 
104 256.44 5.46703992e+08 1.64011198e+07 
105 257.24 4.78487578e+08 1.43546273e+07 
106 258.05 4.23680049e+08 1.27104015e+07 
107 258.85 3.59993118e+08 1.07997935e+07 
108 259.66 2.79181122e+08 8.37543367e+06 
109 260.46 2.04685935e+08 6.14057806e+06 
110 261.27 1.50623194e+08 4.51869582e+06 
111 262.08 1.02777679e+08 3.08333036e+06 
112 262.88 6.89149318e+07 2.06744795e+06 
113 263.69 4.52658015e+07 1.35797405e+06 
114 264.50 3.00811065e+07 9.02433194e+05 
115 265.30 1.94007767e+07 5.82023301e+05 
116 266.11 1.15722922e+07 3.47168766e+05 
117 266.91 6.84314222e+06 2.05294267e+05 
118 267.72 3.85479681e+06 1.15643904e+05 
119 268.53 2.16022702e+06 6.48068105e+04 
120 269.33 1.18674100e+06 3.56022299e+04 
121 270.14 6.86454865e+05 2.05936460e+04 
122 270.95 3.90501017e+05 1.17150305e+04 
123 271.75 2.18001057e+05 6.54003170e+03 
124 272.56 1.18574824e+05 3.55724473e+03 
125 273.37 6.36980775e+04 1.91094233e+03 
126 274.17 3.29748859e+04 9.89246576e+02 
127 274.98 1.83076471e+04 5.49229412e+02 
128 275.79 1.02066030e+04 3.06198091e+02 
129 276.59 5.93677661e+03 1.78103298e+02 
130 277.40 3.43540559e+03 1.03062168e+02 
131 278.21 1.96286001e+03 5.88858004e+01 
132 279.01 1.16492308e+03 3.49476923e+01 
133 279.82 7.02560627e+02 2.10768188e+01 
134 280.63 4.10926491e+02 1.23277947e+01 
135 281.44 2.43280027e+02 7.29840082e+00 
136 282.24 1.51439960e+02 4.54319880e+00 
137 283.05 1.00778295e+02 3.02334884e+00 
138 283.86 6.80007956e+01 2.04002387e+00 
139 284.66 4.48840109e+01 1.34652033e+00 
140 285.47 3.03490174e+01 9.10470523e-01 
141 286.28 2.20254549e+01 6.60763646e-01 
142 287.09 1.58304207e+01 4.74912621e-01 
143 287.89 1.16669048e+01 3.50007144e-01 
144 288.70 8.66298322e+00 2.59889497e-01 
145 289.51 6.74053186e+00 2.02215956e-01 
146 290.32 5.32650812e+00 1.59795244e-01 
147 291.12 4.18863334e+00 1.25659000e-01 
148 291.93 3.37268564e+00 1.01180569e-01 
149 292.74 2.81938356e+00 8.45815067e-02 
150 293.55 2.34360842e+00 7.03082525e-02 
151 294.35 1.98925335e+00 5.96776006e-02 
152 295.16 1.76601000e+00 5.29803001e-02 
153 295.97 1.49876228e+00 4.49628683e-02 
154 296.78 1.31027081e+00 3.93081242e-02 
155 297.58 1.16880863e+00 3.50642590e-02 
156 298.39 1.06278330e+00 3.18834990e-02 
157 299.20 9.75771275e-01 2.92731382e-02 
158 300.01 8.97726484e-01 2.69317945e-02 
159 300.81 8.51542759e-01 2.55462828e-02 
160 301.62 7.86408168e-01 2.35922450e-02 
161 302.43 7.36434814e-01 2.20930444e-02 
162 303.24 6.99496825e-01 2.09849048e-02 
163 304.05 6.79591314e-01 2.03877394e-02 
164 304.85 6.48516437e-01 1.94554931e-02 
165 305.66 6.33261223e-01 1.89978367e-02 
166 306.47 6.10497155e-01 1.83149146e-02 
167 307.28 5.97325888e-01 1.79197766e-02 
168 308.08 5.85671408e-01 1.75701422e-02 
169 308.89 5.79138963e-01 1.73741689e-02 
170 309.70 5.63146627e-01 1.68943988e-02 
171 310.51 5.56260840e-01 1.66878252e-02 
172 311.32 5.43949807e-01 1.63184942e-02 
173 312.12 5.37687909e-01 1.61306373e-02 
174 312.93 5.39485399e-01 1.61845620e-02 
175 313.74 5.34760934e-01 1.60428280e-02 
176 314.55 5.33708628e-01 1.60112589e-02 
177 315.36 5.29085188e-01 1.58725556e-02 
178 316.16 5.41798040e-01 1.62539412e-02 
179 316.97 5.50761702e-01 1.65228510e-02 
180 317.78 5.55517052e-01 1.66655116e-02 
181 318.59 5.61365549e-01 1.68409665e-02 
182 319.39 5.58080822e-01 1.67424247e-02 
183 320.20 5.70524912e-01 1.71157474e-02 
184 321.01 5.90030514e-01 1.77009154e-02 
185 321.82 6.01001358e-01 1.80300408e-02 
186 322.63 6.11621169e-01 1.83486351e-02 
187 323.43 6.28248618e-01 1.88474585e-02 
188 324.24 6.48808655e-01 1.94642596e-02 
189 325.05 6.47520386e-01 1.94256116e-02 
190 325.86 6.74481640e-01 2.02344492e-02 
191 326.67 6.98251401e-01 2.09475420e-02 
192 327.48 7.22627912e-01 2.16788374e-02 
193 328.28 7.46082929e-01 2.23824879e-02 
194 329.09 7.74480664e-01 2.32344199e-02 
195 329.90 8.08764769e-01 2.42629431e-02 
196 330.71 8.41927377e-01 2.52578213e-02 
197 331.51 8.98309917e-01 2.69492975e-02 
198 332.32 9.87680481e-01 2.96304144e-02 
199 333.13 1.15779353e+00 3.47338058e-02 
200 333.94 1.47835166e+00 4.43505498e-02 
201 334.75 2.03247383e+00 6.09742149e-02 
202 335.56 2.84661921e+00 8.53985762e-02 
203 336.36 4.02371052e+00 1.20711316e-01 
204 337.17 6.02603230e+00 1.80780969e-01 
205 337.98 8.95792668e+00 2.68737800e-01 
206 338.79 1.26044223e+01 3.78132670e-01 
207 339.59 1.68276069e+01 5.04828208e-01 
208 340.40 2.06960641e+01 6.20881923e-01 
209 341.21 2.39517604e+01 7.18552812e-01 
210 342.02 2.77687373e+01 8.33062119e-01 
211 342.83 3.13872509e+01 9.41617526e-01 
212 343.64 3.25336793e+01 9.76010380e-01 
213 344.44 3.36632850e+01 1.00989855e+00 
214 345.25 3.75246854e+01 1.12574056e+00 
215 346.06 4.14550836e+01 1.24365251e+00 
216 346.87 4.40483217e+01 1.32144965e+00 
217 347.67 4.59725348e+01 1.37917604e+00 
218 348.48 4.75936656e+01 1.42780997e+00 
219 349.29 5.03292471e+01 1.50987741e+00 
220 350.10 5.53056089e+01 1.65916827e+00 
221 350.91 5.91770933e+01 1.77531280e+00 
222 351.71 5.96898213e+01 1.79069464e+00 
223 352.52 6.04929657e+01 1.81478897e+00 
224 353.33 6.57966858e+01 1.97390057e+00 
225 354.14 7.29497970e+01 2.18849391e+00 
226 354.94 7.66106818e+01 2.29832045e+00 
227 355.75 7.57689670e+01 2.27306901e+00 
228 356.56 7.16184349e+01 2.14855305e+00 
229 357.37 6.72738563e+01 2.01821569e+00 
230 358.18 6.59560347e+01 1.97868104e+00 
231 358.98 7.32477647e+01 2.19743294e+00 
232 359.79 8.53517640e+01 2.56055292e+00 
233 360.60 8.79422125e+01 2.63826638e+00 
234 361.41 8.62998445e+01 2.58899533e+00 
235 362.21 9.06213165e+01 2.71863950e+00 
236 363.02 9.63410953e+01 2.89023286e+00 
237 363.83 9.97407805e+01 2.99222341e+00 
238 364.64 1.04275556e+02 3.12826669e+00 
239 365.44 1.13436927e+02 3.40310780e+00 
240 366.25 1.22294754e+02 3.66884262e+00 
241 367.06 1.24095029e+02 3.72285088e+00 
242 367.87 1.22211673e+02 3.66635020e+00 
243 368.67 1.23486408e+02 3.70459225e+00 
244 369.48 1.28979999e+02 3.86939996e+00 
245 370.29 1.30839594e+02 3.92518781e+00 
246 371.10 1.29476741e+02 3.88430222e+00 
247 371.90 1.26513634e+02 3.79540903e+00 
248 372.71 1.19853661e+02 3.59560983e+00 
249 373.52 1.13012131e+02 3.39036393e+00 
250 374.33 1.11681291e+02 3.35043873e+00 
251 375.13 1.18943307e+02 3.56829920e+00 
252 375.94 1.29768080e+02 3.89304241e+00 
253 376.75 1.41102849e+02 4.23308546e+00 
254 377.55 1.54720140e+02 4.64160420e+00 
255 378.36 1.60006572e+02 4.80019717e+00 
256 379.17 1.52527274e+02 4.57581821e+00 
257 379.98 1.48283260e+02 4.44849781e+00 
258 380.78 1.48683579e+02 4.46050736e+00 
259 381.59 1.37353705e+02 4.12061114e+00 
260 382.40 1.17201511e+02 3.51604533e+00 
261 383.21 1.06244957e+02 3.18734871e+00 
262 384.01 1.13647244e+02 3.40941732e+00 
263 384.82 1.29251974e+02 3.87755922e+00 
264 385.63 1.36904002e+02 4.10712007e+00 
265 386.43 1.38466708e+02 4.15400124e+00 
266 387.24 1.39672536e+02 4.19017609e+00 
267 388.05 1.41742738e+02 4.25228213e+00 
268 388.85 1.49647010e+02 4.48941031e+00 
269 389.66 1.63723141e+02 4.91169422e+00 
270 390.47 1.75920438e+02 5.27761314e+00 
271 391.27 1.78706628e+02 5.36119883e+00 
272 392.08 1.62218029e+02 4.86654086e+00 
273 392.89 1.32377398e+02 3.97132193e+00 
274 393.69 1.22136667e+02 3.66410000e+00 
275 394.50 1.44375754e+02 4.33127263e+00 
276 395.31 1.64806246e+02 4.94418737e+00 
277 396.11 1.56357945e+02 4.69073836e+00 
278 396.92 1.46069065e+02 4.38207196e+00 
279 397.73 1.69443211e+02 5.08329632e+00 
280 398.53 2.10938969e+02 6.32816906e+00 
281 399.34 2.39129795e+02 7.17389385e+00 
282 400.15 2.52873013e+02 7.58619039e+00 
283 400.95 2.62029744e+02 7.86089233e+00 
284 401.76 2.69586703e+02 8.08760109e+00 
285 402.57 2.72348280e+02 8.17044840e+00 
286 403.37 2.71061986e+02 8.13185958e+00 
287 404.18 2.69784430e+02 8.09353291e+00 
288 404.98 2.68659152e+02 8.05977457e+00 
289 405.79 2.67332511e+02 8.01997532e+00 
290 406.60 2.67726435e+02 8.03179305e+00 
291 407.40 2.73586392e+02 8.20759176e+00 
292 408.21 2.83822887e+02 8.51468662e+00 
293 409.02 2.88805083e+02 8.66415250e+00 
294 409.82 2.85746716e+02 8.57240149e+00 
295 410.63 2.87862567e+02 8.63587702e+00 
296 411.44 3.00007102e+02 9.00021305e+00 
297 412.24 3.09489480e+02 9.28468441e+00 
298 413.05 3.11190965e+02 9.33572894e+00 
299 413.85 3.11192860e+02 9.33578580e+00 
300 414.66 3.11869419e+02 9.35608258e+00 
301 415.46 3.13204586e+02 9.39613758e+00 
302 416.27 3.13956327e+02 9.41868982e+00 
303 417.08 3.10765333e+02 9.32295999e+00 
304 417.88 3.05781932e+02 9.17345797e+00 
305 418.69 3.03717398e+02 9.11152194e+00 
306 419.49 3.04837264e+02 9.14511791e+00 
307 420.30 3.09027779e+02 9.27083336e+00 
308 421.11 3.13282694e+02 9.39848082e+00 
309 421.91 3.11795804e+02 9.35387411e+00 
310 422.72 3.06527074e+02 9.19581222e+00 
311 423.52 3.05593410e+02 9.16780230e+00 
312 424.33 3.08836500e+02 9.26509499e+00 
313 425.13 3.11048170e+02 9.33144510e+00 
314 425.94 3.10994564e+02 9.32983693e+00 
315 426.74 3.09913776e+02 9.29741327e+00 
316 427.55 3.08475617e+02 9.25426852e+00 
317 428.35 3.04097792e+02 9.12293376e+00 
318 429.16 2.91859476e+02 8.75578427e+00 
319 429.96 2.77032131e+02 8.31096394e+00 
320 430.77 2.79774965e+02 8.39324894e+00 
321 431.58 3.05907795e+02 9.17723384e+00 
322 432.38 3.35858904e+02 1.00757671e+01 
323 433.19 3.50574403e+02 1.05172321e+01 
324 433.99 3.56523619e+02 1.06957086e+01 
325 434.80 3.67935573e+02 1.10380672e+01 
326 435.60 3.85728993e+02 1.15718698e+01 
327 436.41 3.98629700e+02 1.19588910e+01 
328 437.21 3.98306390e+02 1.19491917e+01 
329 438.02 3.91273999e+02 1.17382200e+01 
330 438.82 3.90383684e+02 1.17115105e+01 
331 439.63 3.99562804e+02 1.19868841e+01 
332 440.43 4.14964080e+02 1.24489224e+01 
333 441.24 4.31426197e+02 1.29427859e+01 
334 442.04 4.46465467e+02 1.33939640e+01 
335 442.84 4.56930043e+02 1.37079013e+01 
336 443.65 4.62663307e+02 1.38798992e+01 
337 444.45 4.64312023e+02 1.39293607e+01 
338 445.26 4.62842014e+02 1.38852604e+01 
339 446.06 4.64574423e+02 1.39372327e+01 
340 446.87 4.73527078e+02 1.42058123e+01 
341 447.67 4.86551811e+02 1.45965543e+01 
342 448.48 4.97054778e+02 1.49116433e+01 
343 449.28 5.06500938e+02 1.51950281e+01 
344 450.09 5.17270438e+02 1.55181132e+01 
345 450.89 5.24320663e+02 1.57296199e+01 
346 451.69 5.20736075e+02 1.56220823e+01 
347 452.50 5.10489816e+02 1.53146945e+01 
348 453.30 5.04293019e+02 1.51287906e+01 
349 454.11 5.05871734e+02 1.51761520e+01 
350 454.91 5.13142345e+02 1.53942704e+01 
351 455.72 5.21593623e+02 1.56478087e+01 
352 456.52 5.28837990e+02 1.58651397e+01 
353 457.32 5.32367231e+02 1.59710169e+01 
354 458.13 5.31633444e+02 1.59490033e+01 
355 458.93 5.30638249e+02 1.59191475e+01 
356 459.74 5.33542385e+02 1.60062716e+01 
357 460.54 5.40451230e+02 1.62135369e+01 
358 461.34 5.48300679e+02 1.64490204e+01 
359 462.15 5.53724351e+02 1.66117305e+01 
360 462.95 5.54138279e+02 1.66241484e+01 
361 463.76 5.50522920e+02 1.65156876e+01 
362 464.56 5.46438756e+02 1.63931627e+01 
363 465.36 5.43530261e+02 1.63059078e+01 
364 466.17 5.42123086e+02 1.62636926e+01 
365 466.97 5.42883620e+02 1.62865086e+01 
366 467.77 5.45857722e+02 1.63757316e+01 
367 468.58 5.49584058e+02 1.64875217e+01 
368 469.38 5.50857148e+02 1.65257144e+01 
369 470.18 5.51261425e+02 1.65378427e+01 
370 470.99 5.55894390e+02 1.66768317e+01 
371 471.79 5.63772052e+02 1.69131616e+01 
372 472.59 5.70999378e+02 1.71299814e+01 
373 473.40 5.76001204e+02 1.72800361e+01 
374 474.20 5.79265304e+02 1.73779591e+01 
375 475.00 5.81475880e+02 1.74442764e+01 
376 475.81 5.83156383e+02 1.74946915e+01 
377 476.61 5.86379504e+02 1.75913851e+01 
378 477.41 5.92319453e+02 1.77695836e+01 
379 478.21 5.98452071e+02 1.79535621e+01 
380 479.02 6.02714531e+02 1.80814359e+01 
381 479.82 6.04946711e+02 1.81484013e+01 
382 480.62 6.07281456e+02 1.82184437e+01 
383 481.43 6.08454499e+02 1.82536350e+01 
384 482.23 6.07173761e+02 1.82152128e+01 
385 483.03 6.02618395e+02 1.80785518e+01 
386 483.84 5.93000232e+02 1.77900069e+01 
387 484.64 5.74744750e+02 1.72423425e+01 
388 485.44 5.51659021e+02 1.65497706e+01 
389 486.24 5.37031576e+02 1.61109473e+01 
390 487.05 5.38344627e+02 1.61503388e+01 
391 487.85 5.53105197e+02 1.65931559e+01 
392 488.65 5.71633677e+02 1.71490103e+01 
393 489.45 5.84836301e+02 1.75450890e+01 
394 490.26 5.89713332e+02 1.76914000e+01 
395 491.06 5.87782116e+02 1.76334635e+01 
396 491.86 5.83109351e+02 1.74932805e+01 
397 492.66 5.81717993e+02 1.74515398e+01 
398 493.46 5.86425786e+02 1.75927736e+01 
399 494.27 5.93179736e+02 1.77953921e+01 
400 495.07 5.97386505e+02 1.79215951e+01 
401 495.87 5.99618781e+02 1.79885634e+01 
402 496.67 5.98125012e+02 1.79437504e+01 
403 497.48 5.94037324e+02 1.78211197e+01 
404 498.28 5.89514545e+02 1.76854364e+01 
405 499.08 5.84002749e+02 1.75200825e+01 
406 499.88 5.77790095e+02 1.73337029e+01 
407 500.68 5.72153461e+02 1.71646038e+01 
408 501.48 5.68816859e+02 1.70645058e+01 
409 502.29 5.69912455e+02 1.70973736e+01 
410 503.09 5.73489366e+02 1.72046810e+01 
411 503.89 5.78381262e+02 1.73514379e+01 
412 504.69 5.84427778e+02 1.75328333e+01 
413 505.49 5.89689749e+02 1.76906925e+01 
414 506.29 5.91680020e+02 1.77504006e+01 
415 507.09 5.89674840e+02 1.76902452e+01 
416 507.90 5.86685248e+02 1.76005574e+01 
417 508.70 5.85514810e+02 1.75654443e+01 
418 509.50 5.86064147e+02 1.75819244e+01 
419 510.30 5.87240630e+02 1.76172189e+01 
420 511.10 5.86374227e+02 1.75912268e+01 
421 511.90 5.82636429e+02 1.74790929e+01 
422 512.70 5.76353550e+02 1.72906065e+01 
423 513.51 5.69108694e+02 1.70732608e+01 
424 514.31 5.63158794e+02 1.68947638e+01 
425 515.11 5.55136270e+02 1.66540881e+01 
426 515.91 5.41409648e+02 1.62422894e+01 
427 516.71 5.26746480e+02 1.58023944e+01 
428 517.51 5.17790655e+02 1.55337197e+01 
429 518.31 5.20226926e+02 1.56068078e+01 
430 519.11 5.32647562e+02 1.59794269e+01 
431 519.91 5.46134034e+02 1.63840210e+01 
432 520.71 5.56408840e+02 1.66922652e+01 
433 521.51 5.60934473e+02 1.68280342e+01 
434 522.32 5.62764544e+02 1.68829363e+01 
435 523.12 5.66148002e+02 1.69844401e+01 
436 523.92 5.69971959e+02 1.70991588e+01 
437 524.72 5.70368081e+02 1.71110424e+01 
438 525.52 5.63317903e+02 1.68995371e+01 
439 526.32 5.53189534e+02 1.65956860e+01 
440 527.12 5.50112227e+02 1.65033668e+01 
441 527.92 5.56788128e+02 1.67036438e+01 
442 528.72 5.69490016e+02 1.70847005e+01 
443 529.52 5.81389493e+02 1.74416848e+01 
444 530.32 5.87438558e+02 1.76231568e+01 
445 531.12 5.86454939e+02 1.75936482e+01 
446 531.92 5.81310743e+02 1.74393223e+01 
447 532.72 5.75951944e+02 1.72785583e+01 
448 533.52 5.74481602e+02 1.72344480e+01 
449 534.32 5.78096324e+02 1.73428897e+01 
450 535.12 5.82609393e+02 1.74782818e+01 
451 535.92 5.83478908e+02 1.75043672e+01 
452 536.72 5.81716796e+02 1.74515039e+01 
453 537.52 5.78966841e+02 1.73690052e+01 
454 538.32 5.75250195e+02 1.72575059e+01 
455 539.12 5.70578169e+02 1.71173451e+01 
456 539.92 5.66046693e+02 1.69814008e+01 
457 540.72 5.64242382e+02 1.69272715e+01 
458 541.52 5.66135746e+02 1.69840724e+01 
459 542.32 5.70874116e+02 1.71262235e+01 
460 543.12 5.75804209e+02 1.72741263e+01 
461 543.92 5.79423890e+02 1.73827167e+01 
462 544.72 5.81650166e+02 1.74495050e+01 
463 545.52 5.81583170e+02 1.74474951e+01 
464 546.31 5.78847105e+02 1.73654131e+01 
465 547.12 5.75244317e+02 1.72573295e+01 
466 547.91 5.72955470e+02 1.71886641e+01 
467 548.71 5.72134265e+02 1.71640279e+01 
468 549.51 5.72059534e+02 1.71617860e+01 
469 550.31 5.71476061e+02 1.71442818e+01 
470 551.11 5.70670733e+02 1.71201220e+01 
471 551.91 5.70267704e+02 1.71080311e+01 
472 552.71 5.70285143e+02 1.71085543e+01 
