% C0 (TOA Count Rate, /ms) for 4STAR VIS spectrometer (1044 channels) derived from 4STAR_20161111starsun.mat and recorded on 2016-11-11 18:23:45.
% Data outside 2.0x the STD of 501 nm Langley residuals were screened out.
Pix Wavelength C0 C0err
0 173.18 -1.00000000e+00 -1.00000000e+00 
1 173.97 1.49574249e+02 4.48722746e+00 
2 174.77 1.11265401e+02 3.33796204e+00 
3 175.56 1.28164423e+02 3.84493269e+00 
4 176.36 9.75941270e+03 2.92782381e+02 
5 177.15 1.13154810e+04 3.39464429e+02 
6 177.94 1.21899831e+04 3.65699493e+02 
7 178.74 1.34308392e+04 4.02925176e+02 
8 179.53 1.46308728e+04 4.38926185e+02 
9 180.33 1.60590478e+04 4.81771435e+02 
10 181.12 1.79466939e+04 5.38400816e+02 
11 181.92 1.98890162e+04 5.96670485e+02 
12 182.71 2.21312165e+04 6.63936495e+02 
13 183.51 2.46185966e+04 7.38557899e+02 
14 184.30 2.73918840e+04 8.21756520e+02 
15 185.10 3.10238509e+04 9.30715528e+02 
16 185.89 3.49153412e+04 1.04746024e+03 
17 186.69 3.91300479e+04 1.17390144e+03 
18 187.49 4.39121086e+04 1.31736326e+03 
19 188.28 5.07637749e+04 1.52291325e+03 
20 189.08 5.83831429e+04 1.75149429e+03 
21 189.88 6.68106906e+04 2.00432072e+03 
22 190.67 7.75533853e+04 2.32660156e+03 
23 191.47 8.90898911e+04 2.67269673e+03 
24 192.27 1.04626782e+05 3.13880347e+03 
25 193.07 1.22686269e+05 3.68058806e+03 
26 193.86 1.48113090e+05 4.44339271e+03 
27 194.66 1.64588962e+05 4.93766887e+03 
28 195.46 1.67376807e+05 5.02130422e+03 
29 196.26 1.42772754e+05 4.28318263e+03 
30 197.05 1.34741281e+05 4.04223844e+03 
31 197.85 1.17697863e+05 3.53093588e+03 
32 198.65 1.03586216e+05 3.10758648e+03 
33 199.45 8.31407754e+04 2.49422326e+03 
34 200.25 6.68325212e+04 2.00497564e+03 
35 201.05 5.51511549e+04 1.65453465e+03 
36 201.85 4.36273155e+04 1.30881947e+03 
37 202.64 3.52206808e+04 1.05662042e+03 
38 203.44 2.82983098e+04 8.48949293e+02 
39 204.24 2.27685476e+04 6.83056429e+02 
40 205.04 1.85797142e+04 5.57391427e+02 
41 205.84 1.49137132e+04 4.47411396e+02 
42 206.64 1.19998659e+04 3.59995976e+02 
43 207.44 9.59569738e+03 2.87870921e+02 
44 208.24 7.88965517e+03 2.36689655e+02 
45 209.04 6.26216720e+03 1.87865016e+02 
46 209.84 5.00363712e+03 1.50109114e+02 
47 210.64 4.07690177e+03 1.22307053e+02 
48 211.44 3.31813721e+03 9.95441164e+01 
49 212.24 2.69138620e+03 8.07415859e+01 
50 213.05 2.14913634e+03 6.44740901e+01 
51 213.85 1.74812166e+03 5.24436499e+01 
52 214.65 1.41023940e+03 4.23071821e+01 
53 215.45 1.13010318e+03 3.39030954e+01 
54 216.25 9.08298379e+02 2.72489514e+01 
55 217.05 7.25298457e+02 2.17589537e+01 
56 217.85 5.91545444e+02 1.77463633e+01 
57 218.65 4.77660117e+02 1.43298035e+01 
58 219.46 3.87762555e+02 1.16328767e+01 
59 220.26 3.11668469e+02 9.35005408e+00 
60 221.06 2.47610759e+02 7.42832276e+00 
61 221.86 2.05749955e+02 6.17249865e+00 
62 222.66 1.64677315e+02 4.94031944e+00 
63 223.47 1.31171326e+02 3.93513977e+00 
64 224.27 1.08309664e+02 3.24928991e+00 
65 225.07 8.57548269e+01 2.57264481e+00 
66 225.87 6.99617679e+01 2.09885304e+00 
67 226.68 5.62986888e+01 1.68896066e+00 
68 227.48 4.59247857e+01 1.37774357e+00 
69 228.28 3.73305285e+01 1.11991585e+00 
70 229.09 3.24517708e+01 9.73553125e-01 
71 229.89 2.92328956e+01 8.76986869e-01 
72 230.69 2.98704606e+01 8.96113817e-01 
73 231.49 3.24690482e+01 9.74071447e-01 
74 232.30 3.81994946e+01 1.14598484e+00 
75 233.10 4.79806673e+01 1.43942002e+00 
76 233.91 6.05251854e+01 1.81575556e+00 
77 234.71 7.68430735e+01 2.30529221e+00 
78 235.51 9.81045309e+01 2.94313593e+00 
79 236.32 1.27482583e+02 3.82447749e+00 
80 237.12 1.64462817e+02 4.93388452e+00 
81 237.92 2.10165547e+02 6.30496642e+00 
82 238.73 2.75207239e+02 8.25621718e+00 
83 239.53 3.49504975e+02 1.04851492e+01 
84 240.34 4.50934758e+02 1.35280427e+01 
85 241.14 5.86233378e+02 1.75870013e+01 
86 241.94 7.45979861e+02 2.23793958e+01 
87 242.75 9.26371177e+02 2.77911353e+01 
88 243.55 1.15971041e+03 3.47913123e+01 
89 244.36 1.43355614e+03 4.30066843e+01 
90 245.16 1.72510840e+03 5.17532520e+01 
91 245.97 2.07979075e+03 6.23937225e+01 
92 246.77 2.49757054e+03 7.49271162e+01 
93 247.58 2.95374309e+03 8.86122928e+01 
94 248.38 3.46969025e+03 1.04090707e+02 
95 249.19 3.94775377e+03 1.18432613e+02 
96 249.99 4.52244070e+03 1.35673221e+02 
97 250.80 4.90793106e+03 1.47237932e+02 
98 251.60 5.29053850e+03 1.58716155e+02 
99 252.41 5.66983338e+03 1.70095001e+02 
100 253.21 5.87841710e+03 1.76352513e+02 
101 254.02 6.12987297e+03 1.83896189e+02 
102 254.83 6.33944761e+03 1.90183428e+02 
103 255.63 6.26190750e+03 1.87857225e+02 
104 256.44 6.08400297e+03 1.82520089e+02 
105 257.24 5.72653491e+03 1.71796047e+02 
106 258.05 5.32276852e+03 1.59683056e+02 
107 258.85 5.02075568e+03 1.50622670e+02 
108 259.66 4.43757114e+03 1.33127134e+02 
109 260.46 3.93463495e+03 1.18039049e+02 
110 261.27 3.36561851e+03 1.00968555e+02 
111 262.08 2.86671492e+03 8.60014476e+01 
112 262.88 2.38992933e+03 7.16978799e+01 
113 263.69 1.92601892e+03 5.77805677e+01 
114 264.50 1.62780670e+03 4.88342009e+01 
115 265.30 1.32569271e+03 3.97707813e+01 
116 266.11 1.04362517e+03 3.13087551e+01 
117 266.91 8.32823688e+02 2.49847107e+01 
118 267.72 6.41245020e+02 1.92373506e+01 
119 268.53 4.89091216e+02 1.46727365e+01 
120 269.33 3.77914142e+02 1.13374243e+01 
121 270.14 2.91671388e+02 8.75014163e+00 
122 270.95 2.26685493e+02 6.80056480e+00 
123 271.75 1.73745791e+02 5.21237373e+00 
124 272.56 1.33227331e+02 3.99681992e+00 
125 273.37 9.99839839e+01 2.99951952e+00 
126 274.17 7.48140451e+01 2.24442135e+00 
127 274.98 5.80527100e+01 1.74158130e+00 
128 275.79 4.42264930e+01 1.32679479e+00 
129 276.59 3.42884154e+01 1.02865246e+00 
130 277.40 2.72139796e+01 8.16419389e-01 
131 278.21 2.09717041e+01 6.29151124e-01 
132 279.01 1.64276527e+01 4.92829582e-01 
133 279.82 1.31708800e+01 3.95126401e-01 
134 280.63 1.04837083e+01 3.14511249e-01 
135 281.44 8.22834189e+00 2.46850257e-01 
136 282.24 6.60387859e+00 1.98116358e-01 
137 283.05 5.47998479e+00 1.64399544e-01 
138 283.86 4.51474206e+00 1.35442262e-01 
139 284.66 3.77855904e+00 1.13356771e-01 
140 285.47 3.19003587e+00 9.57010761e-02 
141 286.28 2.77588826e+00 8.32766478e-02 
142 287.09 2.36902772e+00 7.10708315e-02 
143 287.89 2.04634897e+00 6.13904691e-02 
144 288.70 1.82320142e+00 5.46960426e-02 
145 289.51 1.59280527e+00 4.77841581e-02 
146 290.32 1.43311993e+00 4.29935980e-02 
147 291.12 1.30210906e+00 3.90632717e-02 
148 291.93 1.17836927e+00 3.53510781e-02 
149 292.74 1.10009509e+00 3.30028528e-02 
150 293.55 1.02765472e+00 3.08296417e-02 
151 294.35 9.45163310e-01 2.83548993e-02 
152 295.16 8.88701234e-01 2.66610370e-02 
153 295.97 8.39700066e-01 2.51910020e-02 
154 296.78 7.83679020e-01 2.35103706e-02 
155 297.58 7.50210664e-01 2.25063199e-02 
156 298.39 7.18466394e-01 2.15539918e-02 
157 299.20 6.89262388e-01 2.06778716e-02 
158 300.01 6.64736532e-01 1.99420960e-02 
159 300.81 6.39119313e-01 1.91735794e-02 
160 301.62 6.33497244e-01 1.90049173e-02 
161 302.43 6.13677057e-01 1.84103117e-02 
162 303.24 6.08323567e-01 1.82497070e-02 
163 304.05 5.99773354e-01 1.79932006e-02 
164 304.85 5.82138040e-01 1.74641412e-02 
165 305.66 5.68594425e-01 1.70578328e-02 
166 306.47 5.67731634e-01 1.70319490e-02 
167 307.28 5.61286479e-01 1.68385944e-02 
168 308.08 5.53836900e-01 1.66151070e-02 
169 308.89 5.67398197e-01 1.70219459e-02 
170 309.70 5.51989922e-01 1.65596977e-02 
171 310.51 5.52828618e-01 1.65848585e-02 
172 311.32 5.53092824e-01 1.65927847e-02 
173 312.12 5.52964336e-01 1.65889301e-02 
174 312.93 5.60542265e-01 1.68162680e-02 
175 313.74 5.49713968e-01 1.64914190e-02 
176 314.55 5.59214194e-01 1.67764258e-02 
177 315.36 5.70042402e-01 1.71012721e-02 
178 316.16 5.72019928e-01 1.71605979e-02 
179 316.97 5.80367939e-01 1.74110382e-02 
180 317.78 5.94579664e-01 1.78373899e-02 
181 318.59 5.99749241e-01 1.79924772e-02 
182 319.39 6.14318899e-01 1.84295670e-02 
183 320.20 6.27804105e-01 1.88341231e-02 
184 321.01 6.39246800e-01 1.91774040e-02 
185 321.82 6.56260787e-01 1.96878236e-02 
186 322.63 6.79387112e-01 2.03816134e-02 
187 323.43 6.91021277e-01 2.07306383e-02 
188 324.24 7.02361515e-01 2.10708454e-02 
189 325.05 7.28365710e-01 2.18509713e-02 
190 325.86 7.48854656e-01 2.24656397e-02 
191 326.67 7.74147086e-01 2.32244126e-02 
192 327.48 7.95581588e-01 2.38674476e-02 
193 328.28 8.30228356e-01 2.49068507e-02 
194 329.09 8.64342389e-01 2.59302717e-02 
195 329.90 8.98704718e-01 2.69611415e-02 
196 330.71 9.43085202e-01 2.82925560e-02 
197 331.51 1.01805626e+00 3.05416879e-02 
198 332.32 1.14854155e+00 3.44562464e-02 
199 333.13 1.37519736e+00 4.12559208e-02 
200 333.94 1.80668327e+00 5.42004981e-02 
201 334.75 2.49222760e+00 7.47668281e-02 
202 335.56 3.46828775e+00 1.04048633e-01 
203 336.36 4.85756162e+00 1.45726848e-01 
204 337.17 7.05933381e+00 2.11780014e-01 
205 337.98 1.02190734e+01 3.06572203e-01 
206 338.79 1.40508724e+01 4.21526173e-01 
207 339.59 1.83220015e+01 5.49660044e-01 
208 340.40 2.22420258e+01 6.67260773e-01 
209 341.21 2.55375659e+01 7.66126976e-01 
210 342.02 2.93180339e+01 8.79541016e-01 
211 342.83 3.27879566e+01 9.83638697e-01 
212 343.64 3.38214858e+01 1.01464457e+00 
213 344.44 3.50610401e+01 1.05183120e+00 
214 345.25 3.90034360e+01 1.17010308e+00 
215 346.06 4.28120685e+01 1.28436206e+00 
216 346.87 4.53597723e+01 1.36079317e+00 
217 347.67 4.71401125e+01 1.41420337e+00 
218 348.48 4.87870178e+01 1.46361053e+00 
219 349.29 5.16903582e+01 1.55071075e+00 
220 350.10 5.67592605e+01 1.70277782e+00 
221 350.91 6.03554117e+01 1.81066235e+00 
222 351.71 6.06511119e+01 1.81953336e+00 
223 352.52 6.16930183e+01 1.85079055e+00 
224 353.33 6.70468115e+01 2.01140434e+00 
225 354.14 7.39828895e+01 2.21948668e+00 
226 354.94 7.72100682e+01 2.31630205e+00 
227 355.75 7.59696096e+01 2.27908829e+00 
228 356.56 7.15436039e+01 2.14630812e+00 
229 357.37 6.72292441e+01 2.01687732e+00 
230 358.18 6.61622191e+01 1.98486657e+00 
231 358.98 7.39565537e+01 2.21869661e+00 
232 359.79 8.54929027e+01 2.56478708e+00 
233 360.60 8.74277015e+01 2.62283104e+00 
234 361.41 8.60103254e+01 2.58030976e+00 
235 362.21 9.04776875e+01 2.71433063e+00 
236 363.02 9.58661561e+01 2.87598468e+00 
237 363.83 9.90939220e+01 2.97281766e+00 
238 364.64 1.03830021e+02 3.11490064e+00 
239 365.44 1.13013209e+02 3.39039627e+00 
240 366.25 1.21196700e+02 3.63590099e+00 
241 367.06 1.22464263e+02 3.67392790e+00 
242 367.87 1.20466027e+02 3.61398080e+00 
243 368.67 1.21837586e+02 3.65512757e+00 
244 369.48 1.26971513e+02 3.80914539e+00 
245 370.29 1.28311341e+02 3.84934024e+00 
246 371.10 1.26808937e+02 3.80426810e+00 
247 371.90 1.23601929e+02 3.70805787e+00 
248 372.71 1.16804400e+02 3.50413199e+00 
249 373.52 1.10244006e+02 3.30732017e+00 
250 374.33 1.09315606e+02 3.27946817e+00 
251 375.13 1.16591485e+02 3.49774455e+00 
252 375.94 1.27026462e+02 3.81079386e+00 
253 376.75 1.38119776e+02 4.14359328e+00 
254 377.55 1.51006673e+02 4.53020018e+00 
255 378.36 1.55023993e+02 4.65071978e+00 
256 379.17 1.47462556e+02 4.42387667e+00 
257 379.98 1.43726371e+02 4.31179114e+00 
258 380.78 1.43415198e+02 4.30245594e+00 
259 381.59 1.31408814e+02 3.94226442e+00 
260 382.40 1.12082958e+02 3.36248875e+00 
261 383.21 1.02626361e+02 3.07879083e+00 
262 384.01 1.10487963e+02 3.31463890e+00 
263 384.82 1.24876412e+02 3.74629237e+00 
264 385.63 1.31296976e+02 3.93890929e+00 
265 386.43 1.32409037e+02 3.97227111e+00 
266 387.24 1.33291840e+02 3.99875519e+00 
267 388.05 1.35323701e+02 4.05971103e+00 
268 388.85 1.43159996e+02 4.29479989e+00 
269 389.66 1.56243436e+02 4.68730307e+00 
270 390.47 1.66930660e+02 5.00791979e+00 
271 391.27 1.67944293e+02 5.03832879e+00 
272 392.08 1.50622332e+02 4.51866996e+00 
273 392.89 1.22756824e+02 3.68270473e+00 
274 393.69 1.15074256e+02 3.45222767e+00 
275 394.50 1.36162857e+02 4.08488570e+00 
276 395.31 1.52955180e+02 4.58865541e+00 
277 396.11 1.43814708e+02 4.31444124e+00 
278 396.92 1.35908844e+02 4.07726533e+00 
279 397.73 1.58792349e+02 4.76377048e+00 
280 398.53 1.95944343e+02 5.87833030e+00 
281 399.34 2.20393558e+02 6.61180673e+00 
282 400.15 2.32356781e+02 6.97070343e+00 
283 400.95 2.40513685e+02 7.21541056e+00 
284 401.76 2.47007804e+02 7.41023411e+00 
285 402.57 2.49169353e+02 7.47508060e+00 
286 403.37 2.47855353e+02 7.43566060e+00 
287 404.18 2.46649465e+02 7.39948395e+00 
288 404.98 2.45557903e+02 7.36673708e+00 
289 405.79 2.44419711e+02 7.33259134e+00 
290 406.60 2.45171018e+02 7.35513053e+00 
291 407.40 2.50925532e+02 7.52776595e+00 
292 408.21 2.59975561e+02 7.79926683e+00 
293 409.02 2.63677567e+02 7.91032701e+00 
294 409.82 2.60771264e+02 7.82313792e+00 
295 410.63 2.63199380e+02 7.89598141e+00 
296 411.44 2.73709638e+02 8.21128915e+00 
297 412.24 2.81081848e+02 8.43245544e+00 
298 413.05 2.81642875e+02 8.44928624e+00 
299 413.85 2.80842413e+02 8.42527239e+00 
300 414.66 2.80762276e+02 8.42286829e+00 
301 415.46 2.81259483e+02 8.43778449e+00 
302 416.27 2.80860838e+02 8.42582515e+00 
303 417.08 2.76943252e+02 8.30829757e+00 
304 417.88 2.71641899e+02 8.14925698e+00 
305 418.69 2.68905952e+02 8.06717856e+00 
306 419.49 2.69113047e+02 8.07339140e+00 
307 420.30 2.72205311e+02 8.16615932e+00 
308 421.11 2.75099550e+02 8.25298650e+00 
309 421.91 2.73232601e+02 8.19697802e+00 
310 422.72 2.68871481e+02 8.06614443e+00 
311 423.52 2.68509252e+02 8.05527757e+00 
312 424.33 2.71640430e+02 8.14921291e+00 
313 425.13 2.74047244e+02 8.22141731e+00 
314 425.94 2.74726561e+02 8.24179684e+00 
315 426.74 2.74855973e+02 8.24567920e+00 
316 427.55 2.74937336e+02 8.24812009e+00 
317 428.35 2.72128471e+02 8.16385413e+00 
318 429.16 2.62404862e+02 7.87214585e+00 
319 429.96 2.51889820e+02 7.55669460e+00 
320 430.77 2.58406245e+02 7.75218735e+00 
321 431.58 2.85050795e+02 8.55152386e+00 
322 432.38 3.13881889e+02 9.41645666e+00 
323 433.19 3.28968466e+02 9.86905399e+00 
324 433.99 3.37259004e+02 1.01177701e+01 
325 434.80 3.51168858e+02 1.05350657e+01 
326 435.60 3.70593063e+02 1.11177919e+01 
327 436.41 3.84576539e+02 1.15372962e+01 
328 437.21 3.86133073e+02 1.15839922e+01 
329 438.02 3.82055716e+02 1.14616715e+01 
330 438.82 3.84128533e+02 1.15238560e+01 
331 439.63 3.95372230e+02 1.18611669e+01 
332 440.43 4.12435048e+02 1.23730515e+01 
333 441.24 4.30337369e+02 1.29101211e+01 
334 442.04 4.46589526e+02 1.33976858e+01 
335 442.84 4.58344988e+02 1.37503497e+01 
336 443.65 4.65469866e+02 1.39640960e+01 
337 444.45 4.68443460e+02 1.40533038e+01 
338 445.26 4.68646824e+02 1.40594047e+01 
339 446.06 4.72508058e+02 1.41752417e+01 
340 446.87 4.83228778e+02 1.44968633e+01 
341 447.67 4.97345627e+02 1.49203688e+01 
342 448.48 5.08930469e+02 1.52679141e+01 
343 449.28 5.19523760e+02 1.55857128e+01 
344 450.09 5.30819002e+02 1.59245701e+01 
345 450.89 5.37636693e+02 1.61291008e+01 
346 451.69 5.33747579e+02 1.60124274e+01 
347 452.50 5.24027534e+02 1.57208260e+01 
348 453.30 5.18955885e+02 1.55686766e+01 
349 454.11 5.21641222e+02 1.56492367e+01 
350 454.91 5.30014944e+02 1.59004483e+01 
351 455.72 5.39299140e+02 1.61789742e+01 
352 456.52 5.47047528e+02 1.64114258e+01 
353 457.32 5.50716517e+02 1.65214955e+01 
354 458.13 5.50134387e+02 1.65040316e+01 
355 458.93 5.49400350e+02 1.64820105e+01 
356 459.74 5.52605919e+02 1.65781776e+01 
357 460.54 5.59710113e+02 1.67913034e+01 
358 461.34 5.67620999e+02 1.70286300e+01 
359 462.15 5.73059412e+02 1.71917824e+01 
360 462.95 5.73493848e+02 1.72048154e+01 
361 463.76 5.70249215e+02 1.71074764e+01 
362 464.56 5.66811931e+02 1.70043579e+01 
363 465.36 5.64421012e+02 1.69326304e+01 
364 466.17 5.63384853e+02 1.69015456e+01 
365 466.97 5.64287259e+02 1.69286178e+01 
366 467.77 5.66972576e+02 1.70091773e+01 
367 468.58 5.69930011e+02 1.70979003e+01 
368 469.38 5.70551648e+02 1.71165494e+01 
369 470.18 5.71321187e+02 1.71396356e+01 
370 470.99 5.76906486e+02 1.73071946e+01 
371 471.79 5.85513977e+02 1.75654193e+01 
372 472.59 5.93426235e+02 1.78027871e+01 
373 473.40 5.99015202e+02 1.79704561e+01 
374 474.20 6.02552664e+02 1.80765799e+01 
375 475.00 6.04851750e+02 1.81455525e+01 
376 475.81 6.06843916e+02 1.82053175e+01 
377 476.61 6.10254915e+02 1.83076474e+01 
378 477.41 6.15834849e+02 1.84750455e+01 
379 478.21 6.21363576e+02 1.86409073e+01 
380 479.02 6.25234882e+02 1.87570465e+01 
381 479.82 6.27518875e+02 1.88255662e+01 
382 480.62 6.30200284e+02 1.89060085e+01 
383 481.43 6.31626328e+02 1.89487898e+01 
384 482.23 6.30568824e+02 1.89170647e+01 
385 483.03 6.26011768e+02 1.87803531e+01 
386 483.84 6.15755483e+02 1.84726645e+01 
387 484.64 5.96283345e+02 1.78885003e+01 
388 485.44 5.72779012e+02 1.71833704e+01 
389 486.24 5.58750741e+02 1.67625222e+01 
390 487.05 5.60636759e+02 1.68191028e+01 
391 487.85 5.75790349e+02 1.72737105e+01 
392 488.65 5.94690275e+02 1.78407082e+01 
393 489.45 6.07984656e+02 1.82395397e+01 
394 490.26 6.12725544e+02 1.83817663e+01 
395 491.06 6.11080885e+02 1.83324265e+01 
396 491.86 6.07250489e+02 1.82175147e+01 
397 492.66 6.06811742e+02 1.82043523e+01 
398 493.46 6.12253093e+02 1.83675928e+01 
399 494.27 6.19125836e+02 1.85737751e+01 
400 495.07 6.23090103e+02 1.86927031e+01 
401 495.87 6.24673392e+02 1.87402018e+01 
402 496.67 6.22223523e+02 1.86667057e+01 
403 497.48 6.17582999e+02 1.85274900e+01 
404 498.28 6.12869237e+02 1.83860771e+01 
405 499.08 6.07056290e+02 1.82116887e+01 
406 499.88 6.00571125e+02 1.80171337e+01 
407 500.68 5.95142072e+02 1.78542622e+01 
408 501.48 5.92518160e+02 1.77755448e+01 
409 502.29 5.94373751e+02 1.78312125e+01 
410 503.09 5.98543176e+02 1.79562953e+01 
411 503.89 6.03905671e+02 1.81171701e+01 
412 504.69 6.09952196e+02 1.82985659e+01 
413 505.49 6.14456973e+02 1.84337092e+01 
414 506.29 6.15396343e+02 1.84618903e+01 
415 507.09 6.12723829e+02 1.83817149e+01 
416 507.90 6.09516744e+02 1.82855023e+01 
417 508.70 6.08335330e+02 1.82500599e+01 
418 509.50 6.09191663e+02 1.82757499e+01 
419 510.30 6.10747947e+02 1.83224384e+01 
420 511.10 6.10012281e+02 1.83003684e+01 
421 511.90 6.06104842e+02 1.81831452e+01 
422 512.70 5.99642778e+02 1.79892833e+01 
423 513.51 5.92407698e+02 1.77722309e+01 
424 514.31 5.86161842e+02 1.75848553e+01 
425 515.11 5.77152054e+02 1.73145616e+01 
426 515.91 5.62651569e+02 1.68795471e+01 
427 516.71 5.47912256e+02 1.64373677e+01 
428 517.51 5.39271511e+02 1.61781453e+01 
429 518.31 5.42220304e+02 1.62666091e+01 
430 519.11 5.55051666e+02 1.66515500e+01 
431 519.91 5.69016400e+02 1.70704920e+01 
432 520.71 5.79742696e+02 1.73922809e+01 
433 521.51 5.84678484e+02 1.75403545e+01 
434 522.32 5.87271228e+02 1.76181368e+01 
435 523.12 5.91268284e+02 1.77380485e+01 
436 523.92 5.95290308e+02 1.78587092e+01 
437 524.72 5.95100553e+02 1.78530166e+01 
438 525.52 5.87311318e+02 1.76193395e+01 
439 526.32 5.77151947e+02 1.73145584e+01 
440 527.12 5.74537963e+02 1.72361389e+01 
441 527.92 5.81636967e+02 1.74491090e+01 
442 528.72 5.94657941e+02 1.78397382e+01 
443 529.52 6.06873368e+02 1.82062010e+01 
444 530.32 6.12903396e+02 1.83871019e+01 
445 531.12 6.11499322e+02 1.83449797e+01 
446 531.92 6.06120989e+02 1.81836297e+01 
447 532.72 6.00792761e+02 1.80237828e+01 
448 533.52 5.99766661e+02 1.79929998e+01 
449 534.32 6.04003034e+02 1.81200910e+01 
450 535.12 6.08877719e+02 1.82663316e+01 
451 535.92 6.09993082e+02 1.82997924e+01 
452 536.72 6.08388349e+02 1.82516505e+01 
453 537.52 6.05276212e+02 1.81582864e+01 
454 538.32 6.00954357e+02 1.80286307e+01 
455 539.12 5.95843067e+02 1.78752920e+01 
456 539.92 5.91410804e+02 1.77423241e+01 
457 540.72 5.89839340e+02 1.76951802e+01 
458 541.52 5.91774963e+02 1.77532489e+01 
459 542.32 5.96511354e+02 1.78953406e+01 
460 543.12 6.01256804e+02 1.80377041e+01 
461 543.92 6.04516687e+02 1.81355006e+01 
462 544.72 6.06281181e+02 1.81884354e+01 
463 545.52 6.05674174e+02 1.81702252e+01 
464 546.31 6.02495320e+02 1.80748596e+01 
465 547.12 5.98663779e+02 1.79599134e+01 
466 547.91 5.96457861e+02 1.78937358e+01 
467 548.71 5.96090999e+02 1.78827300e+01 
468 549.51 5.96765474e+02 1.79029642e+01 
469 550.31 5.97059159e+02 1.79117748e+01 
470 551.11 5.96872909e+02 1.79061873e+01 
471 551.91 5.96698805e+02 1.79009641e+01 
