% C0 (TOA Count Rate, /ms) for 4STAR VIS spectrometer (1044 channels) derived from (SEE Original files for sources) and recorded on 2017-05-10 14:00:08.
% Data outside 2.0x the STD of 501 nm Langley residuals were screened out. 
% Averages of c0 from multiple days including: , inflight-20160825, MLO-avg-20161115, inflight-20160924. See the list of files below
% 20160825_VIS_C0_refined_Langley_ORACLES_transit2.dat
% 20161115_VIS_C0_refined_Langley_Nov2016part1.5incl1115_good_mean.dat
% 20160924_VIS_C0_refined_Langley_airborne_ORACLES_v1.dat
Pix Wavelength C0 C0err
0 173.18 -1.00000000e+00 0.00000000e+00 
1 173.98 4.09972056e+05 8.91885577e+05 
2 174.77 1.89738792e+06 4.33518271e+06 
3 175.56 8.09809699e+05 1.55372526e+06 
4 176.36 7.28106897e+07 1.52779684e+08 
5 177.15 8.94920300e+07 1.85602308e+08 
6 177.94 1.06659021e+08 2.21154428e+08 
7 178.74 1.29136944e+08 2.68436401e+08 
8 179.53 1.55208477e+08 3.21234711e+08 
9 180.33 1.89240298e+08 3.92013988e+08 
10 181.12 2.26996765e+08 4.71254571e+08 
11 181.92 2.80089091e+08 5.82995102e+08 
12 182.71 3.55169382e+08 7.39284679e+08 
13 183.51 4.17817827e+08 8.74258711e+08 
14 184.30 5.33049847e+08 1.11880739e+09 
15 185.10 6.55923323e+08 1.38605588e+09 
16 185.89 8.15995528e+08 1.72227735e+09 
17 186.69 1.03178835e+09 2.20518304e+09 
18 187.49 1.35124223e+09 2.88675342e+09 
19 188.28 1.74157920e+09 3.69509793e+09 
20 189.08 2.22244773e+09 4.64794134e+09 
21 189.88 2.85806868e+09 5.82930962e+09 
22 190.67 3.71334249e+09 7.58213447e+09 
23 191.47 5.00136631e+09 1.01021426e+10 
24 192.27 6.60703694e+09 1.31190071e+10 
25 193.07 8.46658814e+09 1.63920057e+10 
26 193.86 1.04001663e+10 1.97088390e+10 
27 194.66 1.13471810e+10 2.00147667e+10 
28 195.46 1.22524187e+10 2.04604722e+10 
29 196.26 1.41355805e+10 2.24651585e+10 
30 197.05 1.39868480e+10 2.21765260e+10 
31 197.85 1.65255597e+10 2.95401938e+10 
32 198.65 2.06545172e+10 4.18962085e+10 
33 199.45 2.88234446e+10 6.44962861e+10 
34 200.25 4.13299191e+10 9.71607205e+10 
35 201.05 5.91808321e+10 1.42288769e+11 
36 201.85 9.02056018e+10 2.19193315e+11 
37 202.65 1.47807877e+11 3.60907687e+11 
38 203.44 2.44255638e+11 5.97535684e+11 
39 204.24 3.54450713e+11 8.67717550e+11 
40 205.04 5.63203244e+11 1.37923347e+12 
41 205.84 1.08479718e+12 2.65698778e+12 
42 206.64 1.50318433e+12 3.68189338e+12 
43 207.44 1.79496803e+12 4.39666521e+12 
44 208.24 2.91163172e+12 7.13195328e+12 
45 209.04 4.72913012e+12 1.15839166e+13 
46 209.84 1.19829673e+13 2.93521304e+13 
47 210.64 1.06299426e+13 2.60379184e+13 
48 211.44 1.21296714e+13 2.97114947e+13 
49 212.24 1.48112811e+13 3.62800740e+13 
50 213.04 1.55213862e+13 3.80194716e+13 
51 213.85 1.22370249e+13 2.99744638e+13 
52 214.65 5.00727667e+12 1.22652709e+13 
53 215.45 2.02132543e+12 4.95121460e+12 
54 216.25 8.34038936e+11 2.04296894e+12 
55 217.05 3.35555494e+11 8.21939175e+11 
56 217.85 1.37564015e+11 3.36961262e+11 
57 218.65 5.59799181e+10 1.37121990e+11 
58 219.46 2.26360996e+10 5.54467367e+10 
59 220.26 9.29271786e+09 2.27623120e+10 
60 221.06 3.85234759e+09 9.43621701e+09 
61 221.86 1.56533018e+09 3.83421526e+09 
62 222.66 6.47223063e+08 1.58533653e+09 
63 223.47 2.60550294e+08 6.38195009e+08 
64 224.27 1.04870171e+08 2.56865081e+08 
65 225.07 4.45874988e+07 1.09208023e+08 
66 225.87 1.78549115e+07 4.37296816e+07 
67 226.68 7.41143641e+06 1.81505594e+07 
68 227.48 3.14924984e+06 7.71154603e+06 
69 228.28 1.42978752e+06 3.50053476e+06 
70 229.08 7.23267533e+05 1.77032572e+06 
71 229.89 4.97044219e+05 1.21644770e+06 
72 230.69 4.88303405e+05 1.19501696e+06 
73 231.49 7.21395674e+05 1.76575643e+06 
74 232.30 1.48262511e+06 3.62993448e+06 
75 233.10 3.70153798e+06 9.06416227e+06 
76 233.90 1.00557256e+07 2.46270580e+07 
77 234.71 2.77253275e+07 6.79058818e+07 
78 235.51 8.21667556e+07 2.01255233e+08 
79 236.32 2.36416712e+08 5.79081816e+08 
80 237.12 6.88470358e+08 1.68637002e+09 
81 237.92 2.01976011e+09 4.94733182e+09 
82 238.73 6.04768628e+09 1.48136600e+10 
83 239.53 1.73940735e+10 4.26064679e+10 
84 240.34 5.26725803e+10 1.29020718e+11 
85 241.14 1.49520376e+11 3.66248258e+11 
86 241.94 3.97832427e+11 9.74485846e+11 
87 242.75 1.08553693e+12 2.65901066e+12 
88 243.55 2.73869638e+12 6.70840728e+12 
89 244.36 6.61412165e+12 1.62012208e+13 
90 245.16 1.52559383e+13 3.73692612e+13 
91 245.97 2.91491556e+13 7.14005529e+13 
92 246.77 3.13230436e+13 7.67254673e+13 
93 247.58 2.76579341e+13 6.77478168e+13 
94 248.38 2.66622432e+13 6.53088784e+13 
95 249.19 2.74224603e+13 6.71710187e+13 
96 249.99 1.98640318e+13 4.86567207e+13 
97 250.80 1.84750234e+13 4.52543556e+13 
98 251.60 2.15526973e+13 5.27930812e+13 
99 252.41 2.26774340e+13 5.55481077e+13 
100 253.21 1.94673395e+13 4.76850131e+13 
101 254.02 1.58113070e+13 3.87295945e+13 
102 254.82 1.37231911e+13 3.36147750e+13 
103 255.63 1.43282647e+13 3.50968969e+13 
104 256.44 1.97330923e+13 4.83359691e+13 
105 257.24 2.35099189e+13 5.75872707e+13 
106 258.05 2.28748672e+13 5.60317231e+13 
107 258.85 1.97517173e+13 4.83816035e+13 
108 259.66 2.24756828e+13 5.50539335e+13 
109 260.46 2.89085773e+13 7.08112480e+13 
110 261.27 3.49873994e+13 8.57012640e+13 
111 262.08 2.32403931e+13 5.69270959e+13 
112 262.88 3.14667196e+13 7.70774007e+13 
113 263.69 2.58164199e+13 6.32370516e+13 
114 264.49 1.15268535e+13 2.82349065e+13 
115 265.30 4.92110073e+12 1.20541838e+13 
116 266.11 1.89019367e+12 4.63000882e+12 
117 266.91 6.78363054e+11 1.66164258e+12 
118 267.72 2.28585023e+11 5.59916224e+11 
119 268.53 7.41519244e+10 1.81634105e+11 
120 269.33 2.41086571e+10 5.90537497e+10 
121 270.14 8.48268520e+09 2.07781552e+10 
122 270.95 2.87867522e+09 7.05122604e+09 
123 271.75 9.37583333e+08 2.29656596e+09 
124 272.56 2.91188960e+08 7.13243330e+08 
125 273.37 8.88407410e+07 2.17602819e+08 
126 274.17 2.66064109e+07 6.51652254e+07 
127 274.98 8.45492561e+06 2.07062461e+07 
128 275.79 2.89654536e+06 7.09263398e+06 
129 276.59 1.00706960e+06 2.46529913e+06 
130 277.40 3.51912391e+05 8.61090639e+05 
131 278.21 1.26200404e+05 3.08540212e+05 
132 279.01 4.57713847e+04 1.11762766e+05 
133 279.82 1.72371014e+04 4.19881670e+04 
134 280.63 6.38440047e+03 1.54933986e+04 
135 281.43 2.48176188e+03 5.98236683e+03 
136 282.24 1.06495759e+03 2.54417722e+03 
137 283.05 4.78088510e+02 1.12616403e+03 
138 283.86 2.28527432e+02 5.28501378e+02 
139 284.66 1.11332227e+02 2.50190463e+02 
140 285.47 5.62093629e+01 1.20926607e+02 
141 286.28 3.26384732e+01 6.72943311e+01 
142 287.09 1.94075803e+01 3.77384655e+01 
143 287.89 1.15883850e+01 2.08754377e+01 
144 288.70 7.56952619e+00 1.26084341e+01 
145 289.51 5.32216960e+00 7.98685345e+00 
146 290.32 3.82599177e+00 5.11784703e+00 
147 291.12 2.91801486e+00 3.51678053e+00 
148 291.93 2.21258571e+00 2.37138827e+00 
149 292.74 1.80356125e+00 1.72051665e+00 
150 293.55 1.53647567e+00 1.27023241e+00 
151 294.35 1.31945109e+00 9.58254118e-01 
152 295.16 1.15665428e+00 7.39891132e-01 
153 295.97 1.03146266e+00 5.66636493e-01 
154 296.78 9.21725477e-01 4.79921416e-01 
155 297.58 8.50508678e-01 3.75084872e-01 
156 298.39 8.04161426e-01 3.11736069e-01 
157 299.20 7.16253250e-01 2.87986914e-01 
158 300.01 7.35813444e-01 1.73142397e-01 
159 300.81 6.55266837e-01 1.94104522e-01 
160 301.62 6.30160246e-01 1.68858703e-01 
161 302.43 6.28756369e-01 1.36798358e-01 
162 303.24 6.28740060e-01 9.62713122e-02 
163 304.04 5.96269651e-01 9.39652331e-02 
164 304.85 6.19290127e-01 5.13707502e-02 
165 305.66 5.82967204e-01 6.29633039e-02 
166 306.47 6.00011759e-01 2.94133336e-02 
167 307.28 5.47405253e-01 6.52516773e-02 
168 308.08 5.65608029e-01 4.58175417e-02 
169 308.89 5.69263508e-01 3.10343777e-02 
170 309.70 5.44592791e-01 3.95848781e-02 
171 310.51 5.70344404e-01 2.29058565e-02 
172 311.32 5.42936666e-01 2.35569953e-02 
173 312.12 5.64122945e-01 2.14159195e-02 
174 312.93 5.66320521e-01 1.53950479e-02 
175 313.74 5.67636897e-01 1.93799959e-02 
176 314.55 5.55851232e-01 1.42924692e-02 
177 315.36 5.54868730e-01 1.19409303e-02 
178 316.16 5.94949444e-01 3.41575319e-02 
179 316.97 5.65386963e-01 1.29187872e-02 
180 317.78 5.98157822e-01 2.33642367e-02 
181 318.59 5.91507273e-01 1.25254474e-02 
182 319.40 6.18691401e-01 3.42695281e-02 
183 320.20 6.28173595e-01 3.03649914e-02 
184 321.01 6.39822744e-01 3.48499991e-02 
185 321.82 6.50158836e-01 2.43392438e-02 
186 322.63 6.65313520e-01 1.84442328e-02 
187 323.43 7.25491239e-01 7.33368132e-02 
188 324.24 7.39265625e-01 6.69879129e-02 
189 325.05 7.27792841e-01 3.87170237e-02 
190 325.86 7.72999891e-01 6.62293955e-02 
191 326.67 7.87498936e-01 5.20271301e-02 
192 327.48 8.02919809e-01 3.97459145e-02 
193 328.28 8.40772478e-01 4.92203022e-02 
194 329.09 8.79061993e-01 6.62770065e-02 
195 329.90 8.89652380e-01 4.77447148e-02 
196 330.71 9.57598401e-01 6.80545533e-02 
197 331.52 1.07216167e+00 1.15191934e-01 
198 332.32 1.17321645e+00 9.22916801e-02 
199 333.13 1.41757927e+00 1.15463801e-01 
200 333.94 1.91834172e+00 2.14188052e-01 
201 334.75 2.65738454e+00 2.98065996e-01 
202 335.55 3.76343283e+00 4.26014960e-01 
203 336.36 5.22328725e+00 5.23612089e-01 
204 337.17 7.49950537e+00 6.58657054e-01 
205 337.98 1.08614902e+01 8.79048081e-01 
206 338.79 1.47392005e+01 9.45455347e-01 
207 339.60 1.91077553e+01 1.06222056e+00 
208 340.40 2.30372494e+01 1.07596630e+00 
209 341.21 2.62787245e+01 1.10621471e+00 
210 342.02 3.01402856e+01 1.18466741e+00 
211 342.83 3.35308915e+01 1.13911811e+00 
212 343.63 3.45185982e+01 1.17432670e+00 
213 344.44 3.58487996e+01 1.28427156e+00 
214 345.25 3.97954471e+01 1.35970203e+00 
215 346.06 4.34827758e+01 1.26022714e+00 
216 346.87 4.59625492e+01 1.20809223e+00 
217 347.67 4.76941409e+01 1.20439363e+00 
218 348.48 4.94022381e+01 1.23075888e+00 
219 349.29 5.22798891e+01 1.23203009e+00 
220 350.10 5.74680787e+01 1.36544161e+00 
221 350.90 6.10672676e+01 1.39388575e+00 
222 351.71 6.11682045e+01 1.24257835e+00 
223 352.52 6.22138419e+01 1.24717656e+00 
224 353.33 6.77423095e+01 1.44244584e+00 
225 354.14 7.45585575e+01 1.36431005e+00 
226 354.94 7.78205979e+01 1.41179792e+00 
227 355.75 7.64931951e+01 1.32260701e+00 
228 356.56 7.20746154e+01 1.26794433e+00 
229 357.37 6.76011627e+01 1.15437087e+00 
230 358.18 6.65447530e+01 1.11785327e+00 
231 358.98 7.44968736e+01 1.34097938e+00 
232 359.79 8.60530780e+01 1.41953417e+00 
233 360.60 8.77012268e+01 1.19934522e+00 
234 361.41 8.62525697e+01 1.18040399e+00 
235 362.21 9.08493957e+01 1.35453923e+00 
236 363.02 9.63610307e+01 1.51342570e+00 
237 363.83 9.94215126e+01 1.34410580e+00 
238 364.64 1.04222472e+02 1.45964139e+00 
239 365.44 1.13526730e+02 1.66372287e+00 
240 366.25 1.21608205e+02 1.62554118e+00 
241 367.06 1.22812917e+02 1.65012235e+00 
242 367.87 1.20739032e+02 1.49052884e+00 
243 368.67 1.22311415e+02 1.64082323e+00 
244 369.48 1.27514388e+02 1.76102963e+00 
245 370.29 1.28791237e+02 1.71959550e+00 
246 371.10 1.27280240e+02 1.71591768e+00 
247 371.90 1.24103112e+02 1.76331567e+00 
248 372.71 1.17067888e+02 1.41476682e+00 
249 373.52 1.10707340e+02 1.60373228e+00 
250 374.33 1.09832174e+02 1.57028988e+00 
251 375.13 1.17205542e+02 1.69954761e+00 
252 375.94 1.27787516e+02 2.00549181e+00 
253 376.75 1.38898210e+02 2.06640627e+00 
254 377.56 1.51940872e+02 2.40781071e+00 
255 378.36 1.55646730e+02 2.18346305e+00 
256 379.17 1.47865247e+02 1.84966913e+00 
257 379.98 1.44377366e+02 2.02276020e+00 
258 380.78 1.44063574e+02 2.02428250e+00 
259 381.59 1.31743868e+02 1.59566481e+00 
260 382.40 1.12241032e+02 1.21200607e+00 
261 383.20 1.02934374e+02 1.28910831e+00 
262 384.01 1.11133302e+02 1.64358317e+00 
263 384.82 1.25817102e+02 2.05369042e+00 
264 385.63 1.32125793e+02 1.93343326e+00 
265 386.43 1.33219329e+02 1.82663246e+00 
266 387.24 1.34095812e+02 1.82448795e+00 
267 388.05 1.36172721e+02 1.91113720e+00 
268 388.85 1.44137110e+02 2.08145854e+00 
269 389.66 1.57389085e+02 2.35256362e+00 
270 390.47 1.68077055e+02 2.36093942e+00 
271 391.27 1.69016558e+02 2.29538346e+00 
272 392.08 1.51138240e+02 1.62561882e+00 
273 392.89 1.22919877e+02 9.77956439e-01 
274 393.69 1.15493683e+02 1.09915733e+00 
275 394.50 1.37306994e+02 2.13365716e+00 
276 395.31 1.53964144e+02 2.23605699e+00 
277 396.11 1.44058905e+02 1.33482374e+00 
278 396.92 1.36119139e+02 1.12449669e+00 
279 397.73 1.59738979e+02 1.94322499e+00 
280 398.53 1.97224605e+02 2.61399462e+00 
281 399.34 2.21201137e+02 2.34295736e+00 
282 400.15 2.32923987e+02 2.26403207e+00 
283 400.95 2.40902563e+02 2.28344942e+00 
284 401.76 2.47364608e+02 2.44482050e+00 
285 402.57 2.49203656e+02 2.18891678e+00 
286 403.37 2.47925799e+02 2.17225696e+00 
287 404.18 2.46458919e+02 1.83842021e+00 
288 404.99 2.45465856e+02 1.88518663e+00 
289 405.79 2.44369657e+02 1.89078349e+00 
290 406.60 2.45025146e+02 1.77025407e+00 
291 407.40 2.50916837e+02 1.90624911e+00 
292 408.21 2.60328167e+02 2.26822238e+00 
293 409.02 2.64213715e+02 2.45979261e+00 
294 409.82 2.60997448e+02 1.95605254e+00 
295 410.63 2.63731041e+02 2.14487605e+00 
296 411.43 2.74754703e+02 2.61855653e+00 
297 412.24 2.82108313e+02 2.46070234e+00 
298 413.05 2.82774579e+02 2.40413820e+00 
299 413.85 2.82157491e+02 2.46875870e+00 
300 414.66 2.81852331e+02 2.19528378e+00 
301 415.46 2.82480023e+02 2.30388345e+00 
302 416.27 2.82087829e+02 2.29743277e+00 
303 417.08 2.78097043e+02 2.15114684e+00 
304 417.88 2.73085589e+02 2.34639246e+00 
305 418.69 2.70236435e+02 2.24769578e+00 
306 419.49 2.70460095e+02 2.32294867e+00 
307 420.30 2.73639434e+02 2.59000856e+00 
308 421.11 2.76236153e+02 2.59844747e+00 
309 421.91 2.73700454e+02 2.13983304e+00 
310 422.72 2.69043580e+02 1.97980719e+00 
311 423.52 2.68620960e+02 2.14506378e+00 
312 424.33 2.71320912e+02 1.94356231e+00 
313 425.13 2.73366516e+02 1.85131992e+00 
314 425.94 2.73849352e+02 2.02008025e+00 
315 426.74 2.73658099e+02 2.04514704e+00 
316 427.55 2.73239214e+02 1.92046547e+00 
317 428.36 2.70180373e+02 2.02610866e+00 
318 429.16 2.60209252e+02 1.97051581e+00 
319 429.96 2.49335710e+02 1.70184950e+00 
320 430.77 2.56213661e+02 2.01803632e+00 
321 431.58 2.83265901e+02 2.64192971e+00 
322 432.38 3.12247206e+02 3.29153996e+00 
323 433.19 3.27218916e+02 3.46719078e+00 
324 433.99 3.35158357e+02 3.22367795e+00 
325 434.80 3.49083655e+02 3.39952096e+00 
326 435.60 3.68446159e+02 3.70254020e+00 
327 436.41 3.82311061e+02 3.91992200e+00 
328 437.21 3.83523694e+02 3.79030746e+00 
329 438.02 3.79549014e+02 3.73503752e+00 
330 438.82 3.81998943e+02 3.88962926e+00 
331 439.63 3.93948436e+02 4.42364916e+00 
332 440.43 4.10694760e+02 4.12065251e+00 
333 441.24 4.28964325e+02 4.64582776e+00 
334 442.04 4.45331729e+02 5.03829275e+00 
335 442.85 4.57243093e+02 5.46233543e+00 
336 443.65 4.63977407e+02 5.37433272e+00 
337 444.45 4.66522537e+02 5.21826520e+00 
338 445.26 4.66379883e+02 4.91396977e+00 
339 446.06 4.70290095e+02 4.86361361e+00 
340 446.87 4.81816267e+02 5.63375376e+00 
341 447.67 4.95780446e+02 5.57498684e+00 
342 448.48 5.07625675e+02 5.92873518e+00 
343 449.28 5.17498738e+02 5.37095091e+00 
344 450.09 5.29046492e+02 5.74955810e+00 
345 450.89 5.35928557e+02 6.04621091e+00 
346 451.70 5.31708516e+02 5.76915921e+00 
347 452.50 5.21336393e+02 5.01001204e+00 
348 453.30 5.16320046e+02 4.95008575e+00 
349 454.11 5.18987679e+02 4.98136324e+00 
350 454.91 5.27598551e+02 5.36522275e+00 
351 455.72 5.36972116e+02 5.60992328e+00 
352 456.52 5.44540475e+02 5.58573989e+00 
353 457.32 5.47965180e+02 5.43792875e+00 
354 458.13 5.47325307e+02 5.46080192e+00 
355 458.93 5.46207152e+02 5.18172973e+00 
356 459.74 5.50049075e+02 5.68660138e+00 
357 460.54 5.56852305e+02 5.36681923e+00 
358 461.34 5.65328466e+02 5.73253359e+00 
359 462.15 5.71110054e+02 6.01414812e+00 
360 462.95 5.71338421e+02 5.86137578e+00 
361 463.76 5.67356138e+02 5.30288232e+00 
362 464.56 5.63944856e+02 5.46410624e+00 
363 465.36 5.61588496e+02 5.65299616e+00 
364 466.17 5.60761381e+02 5.91959432e+00 
365 466.97 5.61608373e+02 5.83378543e+00 
366 467.77 5.64015910e+02 5.47378801e+00 
367 468.58 5.67589205e+02 5.89630503e+00 
368 469.38 5.67854549e+02 5.32966499e+00 
369 470.18 5.68705643e+02 5.30354714e+00 
370 470.99 5.73740526e+02 4.87380559e+00 
371 471.79 5.82031608e+02 4.81635422e+00 
372 472.59 5.90085843e+02 5.13296082e+00 
373 473.40 5.95472881e+02 5.03556913e+00 
374 474.20 5.98895189e+02 5.02638692e+00 
375 475.00 6.00857059e+02 4.72321034e+00 
376 475.81 6.03031451e+02 4.87291258e+00 
377 476.61 6.06600812e+02 4.96439939e+00 
378 477.41 6.12680858e+02 5.33312495e+00 
379 478.21 6.17939433e+02 4.89179349e+00 
380 479.02 6.22939802e+02 5.91266829e+00 
381 479.82 6.25184488e+02 5.91953946e+00 
382 480.62 6.27126371e+02 5.27373067e+00 
383 481.43 6.28730436e+02 5.61456745e+00 
384 482.23 6.28443876e+02 6.47711468e+00 
385 483.03 6.23435976e+02 5.97252552e+00 
386 483.84 6.13308175e+02 5.95717801e+00 
387 484.64 5.93893770e+02 5.75350803e+00 
388 485.44 5.69870454e+02 4.88237570e+00 
389 486.24 5.56171338e+02 4.80172892e+00 
390 487.04 5.58675285e+02 5.22093499e+00 
391 487.85 5.74888636e+02 6.37072041e+00 
392 488.65 5.92334509e+02 5.04980284e+00 
393 489.45 6.05999004e+02 5.84329954e+00 
394 490.26 6.10468698e+02 5.93024459e+00 
395 491.06 6.07826710e+02 5.08333880e+00 
396 491.86 6.04178676e+02 5.29324740e+00 
397 492.66 6.04231748e+02 5.76299872e+00 
398 493.46 6.09751942e+02 5.82657858e+00 
399 494.27 6.16730242e+02 5.95989061e+00 
400 495.07 6.20814467e+02 6.04611591e+00 
401 495.87 6.21697863e+02 5.24283752e+00 
402 496.67 6.19780387e+02 5.71305463e+00 
403 497.48 6.15801023e+02 6.36895400e+00 
404 498.28 6.10473423e+02 5.76669409e+00 
405 499.08 6.04720318e+02 5.89984515e+00 
406 499.88 5.98000977e+02 5.68106939e+00 
407 500.68 5.93029433e+02 6.08779486e+00 
408 501.48 5.89343342e+02 5.06910096e+00 
409 502.29 5.91609888e+02 5.60945942e+00 
410 503.09 5.96076219e+02 5.99172472e+00 
411 503.89 6.00685412e+02 5.07638995e+00 
412 504.69 6.07217298e+02 5.32599343e+00 
413 505.49 6.12613979e+02 6.02946782e+00 
414 506.29 6.13988693e+02 6.32834827e+00 
415 507.09 6.11467149e+02 6.35537951e+00 
416 507.90 6.07765872e+02 5.84055669e+00 
417 508.70 6.06618818e+02 6.14062957e+00 
418 509.50 6.06910425e+02 5.90986804e+00 
419 510.30 6.07765733e+02 5.45113965e+00 
420 511.10 6.07711356e+02 6.29793320e+00 
421 511.90 6.03030774e+02 5.39296157e+00 
422 512.71 5.97154877e+02 5.69351023e+00 
423 513.51 5.90153078e+02 5.55839043e+00 
424 514.31 5.84890213e+02 6.17113995e+00 
425 515.11 5.75827214e+02 5.89370419e+00 
426 515.91 5.60566752e+02 4.92455306e+00 
427 516.71 5.45830592e+02 4.77459345e+00 
428 517.51 5.37291344e+02 4.85499601e+00 
429 518.31 5.40416777e+02 5.09760978e+00 
430 519.11 5.53414874e+02 5.50298821e+00 
431 519.91 5.66479304e+02 5.01662310e+00 
432 520.71 5.77047755e+02 5.32531908e+00 
433 521.52 5.82180232e+02 5.88234467e+00 
434 522.32 5.84416925e+02 5.62324525e+00 
435 523.12 5.88282737e+02 5.35249989e+00 
436 523.92 5.92212967e+02 5.13272727e+00 
437 524.72 5.93618124e+02 6.58289097e+00 
438 525.52 5.85149978e+02 5.68052441e+00 
439 526.32 5.74953903e+02 5.25122016e+00 
440 527.12 5.71935598e+02 4.57373238e+00 
441 527.92 5.79831527e+02 5.46828970e+00 
442 528.72 5.93002848e+02 6.13561442e+00 
443 529.52 6.03885695e+02 5.50866134e+00 
444 530.32 6.09726661e+02 6.02708471e+00 
445 531.12 6.07823479e+02 5.95930962e+00 
446 531.92 6.02104804e+02 5.66008598e+00 
447 532.72 5.96644001e+02 5.30183551e+00 
448 533.52 5.95389994e+02 4.96274575e+00 
449 534.32 6.00244173e+02 5.48809952e+00 
450 535.12 6.05401564e+02 5.78989747e+00 
451 535.92 6.06439508e+02 5.68077454e+00 
452 536.72 6.05529497e+02 6.10849300e+00 
453 537.52 6.01620404e+02 5.06364696e+00 
454 538.32 5.98575438e+02 6.15976828e+00 
455 539.12 5.92592467e+02 5.22770093e+00 
456 539.92 5.88352310e+02 5.54233635e+00 
457 540.72 5.86695436e+02 5.70428777e+00 
458 541.52 5.88343911e+02 5.80533273e+00 
459 542.32 5.93304468e+02 6.33333405e+00 
460 543.12 5.96989933e+02 5.46602339e+00 
461 543.92 6.00632087e+02 5.88765050e+00 
462 544.72 6.02338470e+02 5.66273425e+00 
463 545.52 6.02515005e+02 6.06848034e+00 
464 546.32 5.99351223e+02 5.67245132e+00 
