% C0 (TOA Count Rate, /ms) for 4STAR VIS spectrometer (1044 channels) derived from (SEE Original files for sources) and recorded on 2017-06-16 18:01:47.
% Langley at MLO and airborne Data outside 2.0x the STD of 501 nm Langley residuals were screened out. 
% Including high Altitude rate spectra, matched to splined stratospheric AOD measured at MLO.
% Averages of c0 from multiple days including: , infl-ig-ht, infl-ig-ht, high- a-lt, high- a-lt. See the list of files below
% 20160908_VIS_C0_refined_Langley_airborne_ORACLES_v1.dat
% 20160912_VIS_C0_refined_Langley_airborne_ORACLES_v1.dat
% 20160902_VIS_C0_refined_high_alt_low_m.dat
% 20160904_VIS_C0_refined_high_alt_low_m.dat
Pix Wavelength C0 C0err
0 173.18 -5.00000000e-01 5.77350269e-01 
1 173.98 -1.00000000e+00 0.00000000e+00 
2 174.77 -1.00000000e+00 0.00000000e+00 
3 175.56 -1.00000000e+00 0.00000000e+00 
4 176.36 -1.00000000e+00 0.00000000e+00 
5 177.15 -1.00000000e+00 0.00000000e+00 
6 177.94 -1.00000000e+00 0.00000000e+00 
7 178.74 -1.00000000e+00 0.00000000e+00 
8 179.53 -1.00000000e+00 0.00000000e+00 
9 180.33 -1.00000000e+00 0.00000000e+00 
10 181.12 -1.00000000e+00 0.00000000e+00 
11 181.92 -1.00000000e+00 0.00000000e+00 
12 182.71 -1.00000000e+00 0.00000000e+00 
13 183.51 -1.00000000e+00 0.00000000e+00 
14 184.30 -1.00000000e+00 0.00000000e+00 
15 185.10 -1.00000000e+00 0.00000000e+00 
16 185.89 -1.00000000e+00 0.00000000e+00 
17 186.69 -1.00000000e+00 0.00000000e+00 
18 187.49 -1.00000000e+00 0.00000000e+00 
19 188.28 -1.00000000e+00 0.00000000e+00 
20 189.08 -1.00000000e+00 0.00000000e+00 
21 189.88 -1.00000000e+00 0.00000000e+00 
22 190.67 -1.00000000e+00 0.00000000e+00 
23 191.47 -1.00000000e+00 0.00000000e+00 
24 192.27 -1.00000000e+00 0.00000000e+00 
25 193.07 -1.00000000e+00 0.00000000e+00 
26 193.86 -1.00000000e+00 0.00000000e+00 
27 194.66 -1.00000000e+00 0.00000000e+00 
28 195.46 -1.00000000e+00 0.00000000e+00 
29 196.26 -1.00000000e+00 0.00000000e+00 
30 197.05 -1.00000000e+00 0.00000000e+00 
31 197.85 -1.00000000e+00 0.00000000e+00 
32 198.65 -1.00000000e+00 0.00000000e+00 
33 199.45 -1.00000000e+00 0.00000000e+00 
34 200.25 -1.00000000e+00 0.00000000e+00 
35 201.05 -1.00000000e+00 0.00000000e+00 
36 201.85 -1.00000000e+00 0.00000000e+00 
37 202.65 -1.00000000e+00 0.00000000e+00 
38 203.44 -1.00000000e+00 0.00000000e+00 
39 204.24 -1.00000000e+00 0.00000000e+00 
40 205.04 -1.00000000e+00 0.00000000e+00 
41 205.84 -1.00000000e+00 0.00000000e+00 
42 206.64 -1.00000000e+00 0.00000000e+00 
43 207.44 -1.00000000e+00 0.00000000e+00 
44 208.24 -1.00000000e+00 0.00000000e+00 
45 209.04 -7.50000000e-01 5.00000000e-01 
46 209.84 4.45545960e+34 8.91091920e+34 
47 210.64 6.70697157e+33 1.34139431e+34 
48 211.44 1.03278367e+33 2.06556733e+33 
49 212.24 1.57124901e+32 3.14249803e+32 
50 213.04 2.10960050e+35 4.21855468e+35 
51 213.85 2.53207977e+34 5.06317800e+34 
52 214.65 3.17637942e+33 6.35124334e+33 
53 215.45 3.84700408e+32 7.69164439e+32 
54 216.25 4.61900043e+31 9.23438926e+31 
55 217.05 5.76130303e+30 1.15169968e+31 
56 217.85 7.06202065e+29 1.41154844e+30 
57 218.65 8.73861396e+28 1.74641805e+29 
58 219.46 1.08803714e+28 2.17401674e+28 
59 220.26 1.33702409e+27 2.67095252e+27 
60 221.06 1.66254014e+26 3.32020369e+26 
61 221.86 2.07277395e+25 4.13791504e+25 
62 222.66 2.56701118e+24 5.12226996e+24 
63 223.47 3.18580433e+23 6.35328821e+23 
64 224.27 3.93409185e+22 7.84000367e+22 
65 225.07 4.85666916e+21 9.66957173e+21 
66 225.87 6.26769369e+20 1.24665411e+21 
67 226.68 7.93838440e+19 1.57656906e+20 
68 227.48 1.03440156e+19 2.05057918e+19 
69 228.28 1.56756178e+18 3.10133936e+18 
70 229.08 3.36171062e+17 6.63784752e+17 
71 229.89 1.35531103e+17 2.67272662e+17 
72 230.69 1.28274258e+17 2.52924953e+17 
73 231.49 3.17201041e+17 6.26422905e+17 
74 232.30 1.64219612e+18 3.24868772e+18 
75 233.10 1.32754427e+19 2.63259715e+19 
76 233.90 1.30403807e+20 2.59079939e+20 
77 234.71 1.40365383e+21 2.79240031e+21 
78 235.51 1.57729192e+22 3.14189310e+22 
79 236.32 1.82138652e+23 3.63159387e+23 
80 237.12 2.09056680e+24 4.17122160e+24 
81 237.92 2.48633289e+25 4.96360207e+25 
82 238.73 2.93042084e+26 5.85251301e+26 
83 239.53 3.48127422e+27 6.95500816e+27 
84 240.34 3.98580162e+28 7.96497164e+28 
85 241.14 4.29699298e+29 8.58842811e+29 
86 241.94 4.15656455e+30 8.30882312e+30 
87 242.75 3.76477816e+31 7.52642082e+31 
88 243.55 3.32361368e+32 6.64511271e+32 
89 244.36 2.53134154e+33 5.06137659e+33 
90 245.16 1.75868428e+34 3.51662535e+34 
91 245.97 1.10607596e+35 2.21176872e+35 
92 246.77 6.60194342e+31 1.32038869e+32 
93 247.58 2.70973548e+32 5.41947095e+32 
94 248.38 1.03364868e+33 2.06729735e+33 
95 249.19 3.50136485e+33 7.00272970e+33 
96 249.99 9.36310998e+33 1.87262199e+34 
97 250.80 1.95169863e+34 3.90339727e+34 
98 251.60 3.89995653e+34 7.79991305e+34 
99 252.41 7.07087780e+34 1.41417556e+35 
100 253.21 1.05154806e+35 2.10309613e+35 
101 254.02 1.42232012e+35 2.84464023e+35 
102 254.82 2.30158157e+01 4.80316315e+01 
103 255.63 1.59549882e+35 3.19099763e+35 
104 256.44 1.12251243e+35 2.24502486e+35 
105 257.24 6.56272818e+34 1.31254564e+35 
106 258.05 4.05557378e+34 8.11114755e+34 
107 258.85 2.13212889e+34 4.26425777e+34 
108 259.66 7.81289338e+33 1.56257868e+34 
109 260.46 2.30260484e+33 4.60520967e+33 
110 261.27 6.57558467e+32 1.31511693e+33 
111 262.08 1.55683030e+32 3.11366059e+32 
112 262.88 2.72106792e+35 5.44128215e+35 
113 263.69 4.14859598e+34 8.29554956e+34 
114 264.49 6.60641972e+33 1.32096743e+34 
115 265.30 8.99808740e+32 1.79907563e+33 
116 266.11 9.67118856e+31 1.93350827e+32 
117 266.91 9.38425017e+30 1.87595689e+31 
118 267.72 7.86537895e+29 1.57209080e+30 
119 268.53 5.43052508e+28 1.08517105e+29 
120 269.33 4.27404054e+27 8.53882095e+27 
121 270.14 3.79506574e+26 7.57929232e+26 
122 270.95 3.21687150e+25 6.42203081e+25 
123 271.75 2.42986445e+24 4.84799634e+24 
124 272.56 1.68557417e+23 3.36031326e+23 
125 273.37 1.04050414e+22 2.07202278e+22 
126 274.17 6.29317095e+20 1.25128542e+21 
127 274.98 4.54574133e+19 9.02214585e+19 
128 275.79 3.55791248e+18 7.04296563e+18 
129 276.59 3.18856850e+17 6.29495943e+17 
130 277.40 2.90371631e+16 5.70874888e+16 
131 278.21 2.59073857e+15 5.06936236e+15 
132 279.01 2.47260068e+14 4.80791765e+14 
133 279.82 2.48646714e+13 4.79715140e+13 
134 280.63 2.53022248e+12 4.83908281e+12 
135 281.43 2.67018747e+11 5.04001789e+11 
136 282.24 3.46803663e+10 6.46421476e+10 
137 283.05 5.33132178e+09 9.77471706e+09 
138 283.86 9.00562945e+08 1.62508803e+09 
139 284.66 1.56774471e+08 2.77463882e+08 
140 285.47 2.95723757e+07 5.12528723e+07 
141 286.28 6.90613986e+06 1.16889239e+07 
142 287.09 1.73861849e+06 2.87842657e+06 
143 287.89 4.28368652e+05 6.85528806e+05 
144 288.70 1.22890639e+05 1.92191983e+05 
145 289.51 3.95013279e+04 6.04155406e+04 
146 290.32 1.42512592e+04 2.12126510e+04 
147 291.12 5.29108371e+03 7.61267363e+03 
148 291.93 2.08552719e+03 2.94215742e+03 
149 292.74 9.02098529e+02 1.23960129e+03 
150 293.55 4.25840878e+02 5.75297795e+02 
151 294.35 2.13483162e+02 2.81670214e+02 
152 295.16 1.13351449e+02 1.46421023e+02 
153 295.97 6.36327863e+01 8.06479991e+01 
154 296.78 3.75045569e+01 4.65006838e+01 
155 297.58 2.25766131e+01 2.75229985e+01 
156 298.39 1.47952183e+01 1.76630282e+01 
157 299.20 1.01997053e+01 1.19252342e+01 
158 300.01 7.30830262e+00 8.33704297e+00 
159 300.81 5.45496268e+00 6.03294232e+00 
160 301.62 4.17083469e+00 4.44936124e+00 
161 302.43 3.31085573e+00 3.40133611e+00 
162 303.24 2.68092972e+00 2.63026206e+00 
163 304.04 2.25560223e+00 2.13225971e+00 
164 304.85 1.92421595e+00 1.72354959e+00 
165 305.66 1.67776553e+00 1.42664280e+00 
166 306.47 1.48531756e+00 1.18124507e+00 
167 307.28 1.33168452e+00 1.02127497e+00 
168 308.08 1.22386339e+00 8.57306521e-01 
169 308.89 1.13969315e+00 7.70380206e-01 
170 309.70 1.06503212e+00 6.83781842e-01 
171 310.51 9.92783107e-01 5.88233378e-01 
172 311.32 9.56530004e-01 5.31033808e-01 
173 312.12 9.10237112e-01 4.60458235e-01 
174 312.93 8.61109533e-01 4.34555836e-01 
175 313.74 8.32474739e-01 3.82317970e-01 
176 314.55 8.20223898e-01 3.46582184e-01 
177 315.36 8.02497237e-01 3.33849462e-01 
178 316.16 8.06186184e-01 3.09657831e-01 
179 316.97 7.96109051e-01 3.02049587e-01 
180 317.78 8.02234217e-01 2.77220695e-01 
181 318.59 7.97395720e-01 2.62670229e-01 
182 319.40 8.09854955e-01 2.40130237e-01 
183 320.20 8.15431804e-01 2.32798860e-01 
184 321.01 8.19067032e-01 2.20522277e-01 
185 321.82 8.27912017e-01 2.21534216e-01 
186 322.63 8.40576127e-01 2.15203960e-01 
187 323.43 8.55300008e-01 1.86457159e-01 
188 324.24 8.56689825e-01 1.94511882e-01 
189 325.05 8.79344881e-01 1.92757274e-01 
190 325.86 9.15624544e-01 1.79440365e-01 
191 326.67 9.27033528e-01 1.77345213e-01 
192 327.48 9.55924406e-01 1.62205699e-01 
193 328.28 9.75217776e-01 1.73311535e-01 
194 329.09 1.01718611e+00 1.58100092e-01 
195 329.90 1.05892709e+00 1.46439497e-01 
196 330.71 1.11490704e+00 1.56841438e-01 
197 331.52 1.20139328e+00 1.46705673e-01 
198 332.32 1.35574120e+00 1.55413920e-01 
199 333.13 1.65103060e+00 1.41672734e-01 
200 333.94 2.14671570e+00 1.60397191e-01 
201 334.75 2.95932680e+00 1.80920989e-01 
202 335.55 4.07066172e+00 2.07501454e-01 
203 336.36 5.59431934e+00 2.93778820e-01 
204 337.17 7.98321021e+00 4.01346899e-01 
205 337.98 1.12777589e+01 5.13625527e-01 
206 338.79 1.51586843e+01 6.58727873e-01 
207 339.60 1.95079351e+01 8.16394401e-01 
208 340.40 2.33733349e+01 9.07190705e-01 
209 341.21 2.65963835e+01 9.40559609e-01 
210 342.02 3.04513764e+01 1.02132400e+00 
211 342.83 3.38189649e+01 1.02862680e+00 
212 343.63 3.46830978e+01 1.06053269e+00 
213 344.44 3.58479233e+01 9.12250602e-01 
214 345.25 3.97192583e+01 9.17989107e-01 
215 346.06 4.34282865e+01 9.64023453e-01 
216 346.87 4.58744316e+01 1.04446984e+00 
217 347.67 4.75968704e+01 1.07479620e+00 
218 348.48 4.91845989e+01 1.01846465e+00 
219 349.29 5.20294065e+01 9.49296798e-01 
220 350.10 5.70416698e+01 9.86833762e-01 
221 350.90 6.04839497e+01 1.13224621e+00 
222 351.71 6.06148176e+01 1.21696027e+00 
223 352.52 6.16288109e+01 1.03420865e+00 
224 353.33 6.68898583e+01 9.21730795e-01 
225 354.14 7.36456623e+01 1.10806468e+00 
226 354.94 7.66557464e+01 1.33236349e+00 
227 355.75 7.52476750e+01 1.41524437e+00 
228 356.56 7.07828369e+01 1.36160494e+00 
229 357.37 6.63855610e+01 1.14321261e+00 
230 358.18 6.53417931e+01 8.85252772e-01 
231 358.98 7.31741123e+01 7.48903252e-01 
232 359.79 8.43567944e+01 9.24518898e-01 
233 360.60 8.59003754e+01 1.26300869e+00 
234 361.41 8.44131851e+01 1.04761839e+00 
235 362.21 8.89174728e+01 1.01174768e+00 
236 363.02 9.41860885e+01 1.14888735e+00 
237 363.83 9.72695294e+01 1.12126931e+00 
238 364.64 1.01949309e+02 9.76159996e-01 
239 365.44 1.11179457e+02 1.15136912e+00 
240 366.25 1.19224278e+02 1.26676748e+00 
241 367.06 1.20366879e+02 1.48694274e+00 
242 367.87 1.18454628e+02 1.42688352e+00 
243 368.67 1.20107041e+02 1.22357319e+00 
244 369.48 1.25590082e+02 1.46665179e+00 
245 370.29 1.26926352e+02 1.64381045e+00 
246 371.10 1.25537674e+02 1.54809358e+00 
247 371.90 1.22570101e+02 1.67621029e+00 
248 372.71 1.15864485e+02 1.64694701e+00 
249 373.52 1.09504614e+02 1.43478590e+00 
250 374.33 1.08894881e+02 1.16637085e+00 
251 375.13 1.16671393e+02 1.13152999e+00 
252 375.94 1.27259228e+02 1.25860681e+00 
253 376.75 1.38551209e+02 1.26640104e+00 
254 377.56 1.51917813e+02 1.68060076e+00 
255 378.36 1.55973210e+02 2.47105864e+00 
256 379.17 1.47843517e+02 2.14742218e+00 
257 379.98 1.44620640e+02 1.95800715e+00 
258 380.78 1.44858135e+02 2.52527127e+00 
259 381.59 1.32349914e+02 2.64413789e+00 
260 382.40 1.12543980e+02 2.10866453e+00 
261 383.20 1.03171068e+02 1.29131793e+00 
262 384.01 1.11949251e+02 1.15596090e+00 
263 384.82 1.27053221e+02 1.86155470e+00 
264 385.63 1.33150597e+02 2.09922885e+00 
265 386.43 1.34216820e+02 2.14779706e+00 
266 387.24 1.35133915e+02 2.27171383e+00 
267 388.05 1.36900532e+02 1.94324675e+00 
268 388.85 1.44969944e+02 1.94523165e+00 
269 389.66 1.58355770e+02 2.22505518e+00 
270 390.47 1.69015198e+02 2.57950814e+00 
271 391.27 1.70067909e+02 3.36824356e+00 
272 392.08 1.51840203e+02 3.59387343e+00 
273 392.89 1.22313996e+02 2.05593502e+00 
274 393.69 1.14586895e+02 6.34718513e-01 
275 394.50 1.37281338e+02 1.13899160e+00 
276 395.31 1.54343872e+02 2.57308416e+00 
277 396.11 1.43376812e+02 2.19594482e+00 
278 396.92 1.34148193e+02 8.16134167e-01 
279 397.73 1.58209694e+02 1.05296154e+00 
280 398.53 1.95810974e+02 1.42482959e+00 
281 399.34 2.19069000e+02 1.69604664e+00 
282 400.15 2.29955875e+02 1.72849473e+00 
283 400.95 2.37524090e+02 1.74854730e+00 
284 401.76 2.43292087e+02 1.62786684e+00 
285 402.57 2.45146957e+02 1.88478440e+00 
286 403.37 2.43147755e+02 1.76992885e+00 
287 404.18 2.41497872e+02 1.72824184e+00 
288 404.99 2.40334538e+02 1.83657597e+00 
289 405.79 2.38868714e+02 1.84607820e+00 
290 406.60 2.39211811e+02 1.90830378e+00 
291 407.40 2.44961144e+02 2.06278811e+00 
292 408.21 2.54058830e+02 2.05869629e+00 
293 409.02 2.57884651e+02 2.11155723e+00 
294 409.82 2.54067459e+02 2.26040522e+00 
295 410.63 2.56366280e+02 2.55435434e+00 
296 411.43 2.67825173e+02 2.34257130e+00 
297 412.24 2.75023285e+02 2.38629393e+00 
298 413.05 2.75264282e+02 2.51396647e+00 
299 413.85 2.75062973e+02 2.57107949e+00 
300 414.66 2.75221580e+02 2.54409770e+00 
301 415.46 2.75737327e+02 2.59496623e+00 
302 416.27 2.76068695e+02 2.41049371e+00 
303 417.08 2.71770119e+02 2.42228066e+00 
304 417.88 2.66578224e+02 2.52680853e+00 
305 418.69 2.64486801e+02 2.44675503e+00 
306 419.49 2.64848740e+02 2.58530868e+00 
307 420.30 2.68029587e+02 2.72745026e+00 
308 421.11 2.71403252e+02 2.43864551e+00 
309 421.91 2.69369232e+02 2.34573256e+00 
310 422.72 2.64558655e+02 2.65703108e+00 
311 423.52 2.64561745e+02 2.72481958e+00 
312 424.33 2.67867478e+02 2.84451366e+00 
313 425.13 2.70197250e+02 2.73532121e+00 
314 425.94 2.70977829e+02 2.60140917e+00 
315 426.74 2.70962609e+02 2.76971120e+00 
316 427.55 2.71105942e+02 2.61775062e+00 
317 428.36 2.68483025e+02 2.38007752e+00 
318 429.16 2.58786835e+02 1.76991685e+00 
319 429.96 2.47116417e+02 2.85895664e+00 
320 430.77 2.54105751e+02 3.42332323e+00 
321 431.58 2.82840195e+02 3.02101209e+00 
322 432.38 3.12728104e+02 2.68742035e+00 
323 433.19 3.26764702e+02 2.32843905e+00 
324 433.99 3.34942085e+02 1.99766888e+00 
325 434.80 3.48606514e+02 2.35739264e+00 
326 435.60 3.69026428e+02 2.25509368e+00 
327 436.41 3.84057258e+02 2.40647837e+00 
328 437.21 3.85619018e+02 3.17114556e+00 
329 438.02 3.79530632e+02 1.62659146e+00 
330 438.82 3.82778641e+02 2.24654967e+00 
331 439.63 3.95325684e+02 2.84230544e+00 
332 440.43 4.12480011e+02 2.74696069e+00 
333 441.24 4.30018013e+02 2.55160154e+00 
334 442.04 4.46593338e+02 3.33995230e+00 
335 442.85 4.59074661e+02 4.89494043e+00 
336 443.65 4.65071877e+02 3.83211201e+00 
337 444.45 4.67392701e+02 3.90399489e+00 
338 445.26 4.68544594e+02 6.03522938e+00 
339 446.06 4.70636353e+02 3.42718186e+00 
340 446.87 4.81200218e+02 3.05270580e+00 
341 447.67 4.96636551e+02 4.75866891e+00 
342 448.48 5.07744926e+02 5.23754206e+00 
343 449.28 5.16877388e+02 4.34678516e+00 
344 450.09 5.28614609e+02 5.10957390e+00 
345 450.89 5.37324371e+02 8.29682861e+00 
346 451.70 5.29599472e+02 4.49641374e+00 
347 452.50 5.21551300e+02 7.67469708e+00 
348 453.30 5.14563255e+02 4.74257937e+00 
349 454.11 5.17380585e+02 5.14146375e+00 
350 454.91 5.26585113e+02 7.40630133e+00 
351 455.72 5.34869064e+02 6.32528932e+00 
352 456.52 5.41725311e+02 5.74463303e+00 
353 457.32 5.43893738e+02 5.00072208e+00 
354 458.13 5.41480194e+02 3.89899708e+00 
355 458.93 5.39705109e+02 3.34753283e+00 
356 459.74 5.43497635e+02 4.02409075e+00 
357 460.54 5.52928726e+02 7.33027903e+00 
358 461.34 5.58222641e+02 3.90861707e+00 
359 462.15 5.65724777e+02 7.61464129e+00 
360 462.95 5.65834503e+02 7.83512603e+00 
361 463.76 5.61446701e+02 7.31088014e+00 
362 464.56 5.55696015e+02 4.53309105e+00 
363 465.36 5.52101959e+02 3.78976704e+00 
364 466.17 5.53302582e+02 7.47717006e+00 
365 466.97 5.53602570e+02 7.00600339e+00 
366 467.77 5.53595718e+02 3.67931449e+00 
367 468.58 5.60120102e+02 7.56719522e+00 
368 469.38 5.60843979e+02 8.04099513e+00 
369 470.18 5.57970489e+02 3.73391234e+00 
370 470.99 5.65425094e+02 6.51013425e+00 
371 471.79 5.73538849e+02 6.70435882e+00 
372 472.59 5.79350418e+02 3.88111414e+00 
373 473.40 5.84642319e+02 3.88096228e+00 
374 474.20 5.90177414e+02 6.73195306e+00 
375 475.00 5.91296616e+02 4.23618947e+00 
376 475.81 5.94488403e+02 7.35726090e+00 
377 476.61 5.96095505e+02 4.03486998e+00 
378 477.41 6.03030884e+02 5.55205554e+00 
379 478.21 6.11361130e+02 7.86567125e+00 
380 479.02 6.11879730e+02 3.89959421e+00 
381 479.82 6.14068878e+02 3.91274583e+00 
382 480.62 6.17414124e+02 4.08109948e+00 
383 481.43 6.19601837e+02 4.09256387e+00 
384 482.23 6.20562744e+02 7.23688895e+00 
385 483.03 6.14239364e+02 4.31142450e+00 
386 483.84 6.07264374e+02 7.86775070e+00 
387 484.64 5.87210602e+02 6.49051543e+00 
388 485.44 5.63552673e+02 6.23980275e+00 
389 486.24 5.49285248e+02 4.67950570e+00 
390 487.04 5.51081650e+02 3.35614957e+00 
391 487.85 5.67737015e+02 3.91334754e+00 
392 488.65 5.89177963e+02 7.53244602e+00 
393 489.45 6.03213699e+02 8.66028610e+00 
394 490.26 6.05346741e+02 3.91273502e+00 
395 491.06 6.03537674e+02 4.31032267e+00 
396 491.86 5.99401108e+02 3.99919885e+00 
397 492.66 5.99493820e+02 3.58753450e+00 
398 493.46 6.06195602e+02 3.90044609e+00 
399 494.27 6.17224976e+02 9.81888162e+00 
400 495.07 6.20894745e+02 9.06608567e+00 
401 495.87 6.21575592e+02 6.01541907e+00 
402 496.67 6.21414185e+02 9.91397618e+00 
403 497.48 6.13925400e+02 5.45343734e+00 
404 498.28 6.10290238e+02 6.74209465e+00 
405 499.08 6.06244629e+02 8.40239316e+00 
406 499.88 5.99286819e+02 6.11027980e+00 
407 500.68 5.93572296e+02 6.78812749e+00 
408 501.48 5.91645920e+02 7.26889468e+00 
409 502.29 5.94661682e+02 8.63342424e+00 
410 503.09 5.98637329e+02 6.87384240e+00 
411 503.89 6.02628708e+02 4.77829038e+00 
412 504.69 6.09697006e+02 5.08186238e+00 
413 505.49 6.16892059e+02 9.05152393e+00 
414 506.29 6.19965286e+02 1.09429994e+01 
415 507.09 6.14489609e+02 6.77934100e+00 
416 507.90 6.12895462e+02 9.59088131e+00 
417 508.70 6.09616180e+02 6.06147584e+00 
418 509.50 6.12732391e+02 9.78767215e+00 
419 510.30 6.10071640e+02 3.89845882e+00 
420 511.10 6.10494904e+02 6.24469514e+00 
421 511.90 6.09682281e+02 9.88184542e+00 
422 512.71 6.02553315e+02 9.88300968e+00 
423 513.51 5.93514389e+02 5.88423017e+00 
424 514.31 5.87478622e+02 5.81826882e+00 
425 515.11 5.80731125e+02 9.27851986e+00 
426 515.91 5.63167481e+02 5.21745162e+00 
427 516.71 5.46924072e+02 3.96191607e+00 
428 517.51 5.40162643e+02 6.67603409e+00 
429 518.31 5.41510864e+02 3.62957067e+00 
430 519.11 5.57803436e+02 8.56370467e+00 
431 519.91 5.68235718e+02 3.90493200e+00 
432 520.71 5.81906158e+02 9.07410745e+00 
433 521.52 5.85794647e+02 8.20922873e+00 
434 522.32 5.84948578e+02 4.22469983e+00 
435 523.12 5.91579407e+02 9.48947037e+00 
436 523.92 5.95525604e+02 9.17881336e+00 
437 524.72 5.93440826e+02 5.23823476e+00 
438 525.52 5.88592316e+02 1.04256201e+01 
439 526.32 5.73410477e+02 3.97845713e+00 
440 527.12 5.72367310e+02 5.47357417e+00 
441 527.92 5.78877533e+02 4.06249780e+00 
442 528.72 5.94216278e+02 6.98017341e+00 
443 529.52 6.03496292e+02 4.72368963e+00 
444 530.32 6.09107712e+02 6.29838320e+00 
445 531.12 6.09859284e+02 1.12960845e+01 
446 531.92 6.03156021e+02 9.31750085e+00 
447 532.72 5.97452209e+02 9.59450569e+00 
448 533.52 5.92839569e+02 5.05187591e+00 
449 534.32 5.97392944e+02 5.36723370e+00 
450 535.12 6.01947311e+02 4.21004986e+00 
451 535.92 6.06870850e+02 1.06760075e+01 
452 536.72 6.04573135e+02 1.00452110e+01 
453 537.52 5.98923325e+02 5.58621313e+00 
454 538.32 5.96357880e+02 8.51876405e+00 
455 539.12 5.90695191e+02 7.89269502e+00 
456 539.92 5.83932861e+02 5.52215328e+00 
457 540.72 5.81998428e+02 5.38678508e+00 
458 541.52 5.85383102e+02 7.33699273e+00 
459 542.32 5.90208450e+02 8.04964315e+00 
