% C0 (TOA Count Rate, /ms) for 4STAR VIS spectrometer (1044 channels) derived from 20160109starsun.mat and recorded on 2016-01-18 15:04:55.
% Data outside 2.0x the STD of 501 nm Langley residuals were screened out.
Pix Wavelength C0 C0err
0 173.18 -1.00000000e+00 -1.00000000e+00 
1 173.97 6.58585016e+09 1.97575505e+08 
2 174.77 4.05074701e+10 1.21522410e+09 
3 175.56 1.08049486e+10 3.24148457e+08 
4 176.36 3.28976370e+12 9.86929110e+10 
5 177.15 5.38552629e+12 1.61565789e+11 
6 177.94 8.55878533e+12 2.56763560e+11 
7 178.74 1.31838475e+13 3.95515424e+11 
8 179.53 1.95064043e+13 5.85192129e+11 
9 180.33 3.12625274e+13 9.37875822e+11 
10 181.12 4.11089045e+13 1.23326714e+12 
11 181.92 6.22809619e+13 1.86842886e+12 
12 182.71 7.76795290e+13 2.33038587e+12 
13 183.51 1.13882613e+14 3.41647839e+12 
14 184.30 1.66484903e+14 4.99454710e+12 
15 185.10 2.36817817e+14 7.10453450e+12 
16 185.89 3.27512811e+14 9.82538432e+12 
17 186.69 4.87343832e+14 1.46203150e+13 
18 187.49 7.30664051e+14 2.19199215e+13 
19 188.28 1.03929616e+15 3.11788849e+13 
20 189.08 1.46249842e+15 4.38749525e+13 
21 189.88 1.95623225e+15 5.86869676e+13 
22 190.67 2.73365488e+15 8.20096463e+13 
23 191.47 4.31300282e+15 1.29390085e+14 
24 192.27 6.99935406e+15 2.09980622e+14 
25 193.07 1.00782873e+16 3.02348618e+14 
26 193.86 1.62654242e+16 4.87962725e+14 
27 194.66 2.86311113e+16 8.58933338e+14 
28 195.46 4.65828133e+16 1.39748440e+15 
29 196.26 7.88712693e+16 2.36613808e+15 
30 197.05 1.19094935e+17 3.57284806e+15 
31 197.85 1.33855775e+17 4.01567325e+15 
32 198.65 2.17598877e+17 6.52796632e+15 
33 199.45 3.99530958e+17 1.19859287e+16 
34 200.25 5.18628332e+17 1.55588500e+16 
35 201.05 2.66874174e+17 8.00622521e+15 
36 201.85 1.30993216e+17 3.92979648e+15 
37 202.64 6.13856250e+16 1.84156875e+15 
38 203.44 2.81177414e+16 8.43532243e+14 
39 204.24 1.32662715e+16 3.97988144e+14 
40 205.04 6.25327350e+15 1.87598205e+14 
41 205.84 2.90332394e+15 8.70997182e+13 
42 206.64 1.33942540e+15 4.01827620e+13 
43 207.44 6.36718869e+14 1.91015661e+13 
44 208.24 3.06173300e+14 9.18519901e+12 
45 209.04 1.49564799e+14 4.48694398e+12 
46 209.84 6.89414404e+13 2.06824321e+12 
47 210.64 3.40133099e+13 1.02039930e+12 
48 211.44 1.57238747e+13 4.71716240e+11 
49 212.24 7.66551772e+12 2.29965532e+11 
50 213.05 3.51438990e+12 1.05431697e+11 
51 213.85 1.63262376e+12 4.89787127e+10 
52 214.65 8.07396772e+11 2.42219031e+10 
53 215.45 3.63304867e+11 1.08991460e+10 
54 216.25 1.73882404e+11 5.21647213e+09 
55 217.05 8.46515761e+10 2.53954728e+09 
56 217.85 3.98340207e+10 1.19502062e+09 
57 218.65 1.90569209e+10 5.71707627e+08 
58 219.46 8.58881470e+09 2.57664441e+08 
59 220.26 4.14093160e+09 1.24227948e+08 
60 221.06 1.86502901e+09 5.59508704e+07 
61 221.86 9.30771255e+08 2.79231376e+07 
62 222.66 4.44146783e+08 1.33244035e+07 
63 223.47 2.12540282e+08 6.37620845e+06 
64 224.27 1.00298511e+08 3.00895533e+06 
65 225.07 4.77963005e+07 1.43388901e+06 
66 225.87 2.30932184e+07 6.92796551e+05 
67 226.68 1.05815946e+07 3.17447837e+05 
68 227.48 5.38082755e+06 1.61424826e+05 
69 228.28 2.58966232e+06 7.76898696e+04 
70 229.09 1.54000326e+06 4.62000977e+04 
71 229.89 1.13079163e+06 3.39237490e+04 
72 230.69 1.12553113e+06 3.37659338e+04 
73 231.49 1.59507503e+06 4.78522509e+04 
74 232.30 2.85134993e+06 8.55404980e+04 
75 233.10 6.15622553e+06 1.84686766e+05 
76 233.91 1.34815675e+07 4.04447025e+05 
77 234.71 3.38100176e+07 1.01430053e+06 
78 235.51 7.86897879e+07 2.36069364e+06 
79 236.32 1.95571639e+08 5.86714917e+06 
80 237.12 4.78765295e+08 1.43629589e+07 
81 237.92 1.18596630e+09 3.55789890e+07 
82 238.73 3.06961788e+09 9.20885363e+07 
83 239.53 7.03626346e+09 2.11087904e+08 
84 240.34 1.70282511e+10 5.10847532e+08 
85 241.14 4.04800958e+10 1.21440287e+09 
86 241.94 9.40433407e+10 2.82130022e+09 
87 242.75 2.16179076e+11 6.48537229e+09 
88 243.55 4.70899879e+11 1.41269964e+10 
89 244.36 9.87523269e+11 2.96256981e+10 
90 245.16 2.05841542e+12 6.17524627e+10 
91 245.97 3.84374803e+12 1.15312441e+11 
92 246.77 7.11712201e+12 2.13513660e+11 
93 247.58 1.38774141e+13 4.16322424e+11 
94 248.38 2.15989558e+13 6.47968673e+11 
95 249.19 3.60567043e+13 1.08170113e+12 
96 249.99 5.63016608e+13 1.68904983e+12 
97 250.80 7.66873323e+13 2.30061997e+12 
98 251.60 9.71776532e+13 2.91532960e+12 
99 252.41 1.30014547e+14 3.90043642e+12 
100 253.21 1.54112577e+14 4.62337732e+12 
101 254.02 1.70855856e+14 5.12567567e+12 
102 254.83 1.86230890e+14 5.58692669e+12 
103 255.63 1.79649923e+14 5.38949770e+12 
104 256.44 1.58874471e+14 4.76623412e+12 
105 257.24 1.31256685e+14 3.93770056e+12 
106 258.05 1.07323156e+14 3.21969468e+12 
107 258.85 8.14801449e+13 2.44440435e+12 
108 259.66 5.41929582e+13 1.62578875e+12 
109 260.46 3.27256302e+13 9.81768907e+11 
110 261.27 1.98593190e+13 5.95779571e+11 
111 262.08 1.10730788e+13 3.32192363e+11 
112 262.88 6.18039061e+12 1.85411718e+11 
113 263.69 2.98740095e+12 8.96220285e+10 
114 264.50 1.59659903e+12 4.78979708e+10 
115 265.30 7.62885985e+11 2.28865795e+10 
116 266.11 3.41536366e+11 1.02460910e+10 
117 266.91 1.43082092e+11 4.29246277e+09 
118 267.72 6.03752046e+10 1.81125614e+09 
119 268.53 2.43594352e+10 7.30783057e+08 
120 269.33 9.23635582e+09 2.77090674e+08 
121 270.14 3.89280958e+09 1.16784287e+08 
122 270.95 1.60250650e+09 4.80751949e+07 
123 271.75 6.28128271e+08 1.88438481e+07 
124 272.56 2.31663864e+08 6.94991591e+06 
125 273.37 9.03360217e+07 2.71008065e+06 
126 274.17 3.35670689e+07 1.00701207e+06 
127 274.98 1.24628292e+07 3.73884876e+05 
128 275.79 5.18272904e+06 1.55481871e+05 
129 276.59 2.04246256e+06 6.12738767e+04 
130 277.40 8.84479023e+05 2.65343707e+04 
131 278.21 3.66054084e+05 1.09816225e+04 
132 279.01 1.63589754e+05 4.90769263e+03 
133 279.82 7.02729799e+04 2.10818940e+03 
134 280.63 2.96875840e+04 8.90627521e+02 
135 281.44 1.37598844e+04 4.12796533e+02 
136 282.24 6.00105119e+03 1.80031536e+02 
137 283.05 3.28039304e+03 9.84117912e+01 
138 283.86 1.70460722e+03 5.11382167e+01 
139 284.66 9.43808618e+02 2.83142585e+01 
140 285.47 4.89381073e+02 1.46814322e+01 
141 286.28 2.82099775e+02 8.46299324e+00 
142 287.09 1.76835273e+02 5.30505820e+00 
143 287.89 1.07440333e+02 3.22320998e+00 
144 288.70 6.70011582e+01 2.01003475e+00 
145 289.51 4.52618950e+01 1.35785685e+00 
146 290.32 3.04057961e+01 9.12173884e-01 
147 291.12 2.16450231e+01 6.49350692e-01 
148 291.93 1.52809317e+01 4.58427951e-01 
149 292.74 1.11883697e+01 3.35651092e-01 
150 293.55 7.92438284e+00 2.37731485e-01 
151 294.35 6.20864215e+00 1.86259264e-01 
152 295.16 4.90593358e+00 1.47178007e-01 
153 295.97 4.17153993e+00 1.25146198e-01 
154 296.78 3.31977285e+00 9.95931854e-02 
155 297.58 2.70361201e+00 8.11083602e-02 
156 298.39 2.39657383e+00 7.18972149e-02 
157 299.20 2.03266342e+00 6.09799026e-02 
158 300.01 1.79558329e+00 5.38674988e-02 
159 300.81 1.59090117e+00 4.77270350e-02 
160 301.62 1.42048969e+00 4.26146907e-02 
161 302.43 1.40259866e+00 4.20779597e-02 
162 303.24 1.23785770e+00 3.71357310e-02 
163 304.05 1.18453518e+00 3.55360555e-02 
164 304.85 1.12049279e+00 3.36147836e-02 
165 305.66 1.00499281e+00 3.01497843e-02 
166 306.47 1.04249384e+00 3.12748151e-02 
167 307.28 9.42245468e-01 2.82673640e-02 
168 308.08 8.88333389e-01 2.66500017e-02 
169 308.89 8.46635121e-01 2.53990536e-02 
170 309.70 8.57448058e-01 2.57234417e-02 
171 310.51 8.27151683e-01 2.48145505e-02 
172 311.32 8.44094327e-01 2.53228298e-02 
173 312.12 7.93897461e-01 2.38169238e-02 
174 312.93 8.17232539e-01 2.45169762e-02 
175 313.74 7.92219503e-01 2.37665851e-02 
176 314.55 7.82104299e-01 2.34631290e-02 
177 315.36 7.48630496e-01 2.24589149e-02 
178 316.16 7.51076767e-01 2.25323030e-02 
179 316.97 7.53297070e-01 2.25989121e-02 
180 317.78 7.80425241e-01 2.34127572e-02 
181 318.59 7.43768325e-01 2.23130497e-02 
182 319.39 7.76268857e-01 2.32880657e-02 
183 320.20 7.87484802e-01 2.36245441e-02 
184 321.01 7.67188144e-01 2.30156443e-02 
185 321.82 7.63264456e-01 2.28979337e-02 
186 322.63 8.41804413e-01 2.52541324e-02 
187 323.43 8.32244210e-01 2.49673263e-02 
188 324.24 8.36259082e-01 2.50877725e-02 
189 325.05 8.58216084e-01 2.57464825e-02 
190 325.86 8.42938199e-01 2.52881460e-02 
191 326.67 8.59632342e-01 2.57889702e-02 
192 327.48 8.84534837e-01 2.65360451e-02 
193 328.28 9.44862775e-01 2.83458833e-02 
194 329.09 9.53799328e-01 2.86139798e-02 
195 329.90 9.60737146e-01 2.88221144e-02 
196 330.71 1.04344058e+00 3.13032175e-02 
197 331.51 1.11858104e+00 3.35574312e-02 
198 332.32 1.20891212e+00 3.62673635e-02 
199 333.13 1.33119858e+00 3.99359573e-02 
200 333.94 1.72098452e+00 5.16295357e-02 
201 334.75 2.26809915e+00 6.80429745e-02 
202 335.56 3.07823182e+00 9.23469547e-02 
203 336.36 4.37320266e+00 1.31196080e-01 
204 337.17 6.30805865e+00 1.89241759e-01 
205 337.98 9.33114000e+00 2.79934200e-01 
206 338.79 1.29786065e+01 3.89358195e-01 
207 339.59 1.70462485e+01 5.11387455e-01 
208 340.40 2.10176859e+01 6.30530577e-01 
209 341.21 2.40135301e+01 7.20405902e-01 
210 342.02 2.77725487e+01 8.33176460e-01 
211 342.83 3.12174907e+01 9.36524721e-01 
212 343.64 3.23757168e+01 9.71271505e-01 
213 344.44 3.33115935e+01 9.99347806e-01 
214 345.25 3.69646883e+01 1.10894065e+00 
215 346.06 4.09310690e+01 1.22793207e+00 
216 346.87 4.34955674e+01 1.30486702e+00 
217 347.67 4.53215291e+01 1.35964587e+00 
218 348.48 4.69058994e+01 1.40717698e+00 
219 349.29 4.94606059e+01 1.48381818e+00 
220 350.10 5.42399252e+01 1.62719776e+00 
221 350.91 5.80942884e+01 1.74282865e+00 
222 351.71 5.85917773e+01 1.75775332e+00 
223 352.52 5.93925233e+01 1.78177570e+00 
224 353.33 6.42849689e+01 1.92854907e+00 
225 354.14 7.13257206e+01 2.13977162e+00 
226 354.94 7.50469920e+01 2.25140976e+00 
227 355.75 7.42581408e+01 2.22774422e+00 
228 356.56 7.02643497e+01 2.10793049e+00 
229 357.37 6.60222695e+01 1.98066809e+00 
230 358.18 6.45858791e+01 1.93757637e+00 
231 358.98 7.14437242e+01 2.14331173e+00 
232 359.79 8.32311353e+01 2.49693406e+00 
233 360.60 8.59002586e+01 2.57700776e+00 
234 361.41 8.43113988e+01 2.52934196e+00 
235 362.21 8.85040324e+01 2.65512097e+00 
236 363.02 9.40236368e+01 2.82070910e+00 
237 363.83 9.73393800e+01 2.92018140e+00 
238 364.64 1.01675628e+02 3.05026885e+00 
239 365.44 1.10598130e+02 3.31794390e+00 
240 366.25 1.19438243e+02 3.58314730e+00 
241 367.06 1.21351537e+02 3.64054612e+00 
242 367.87 1.19593292e+02 3.58779877e+00 
243 368.67 1.20659545e+02 3.61978635e+00 
244 369.48 1.26002968e+02 3.78008905e+00 
245 370.29 1.27987543e+02 3.83962629e+00 
246 371.10 1.26710380e+02 3.80131139e+00 
247 371.90 1.24002072e+02 3.72006216e+00 
248 372.71 1.17657610e+02 3.52972831e+00 
249 373.52 1.10992464e+02 3.32977391e+00 
250 374.33 1.09572857e+02 3.28718572e+00 
251 375.13 1.16557425e+02 3.49672274e+00 
252 375.94 1.27116596e+02 3.81349787e+00 
253 376.75 1.38181953e+02 4.14545859e+00 
254 377.55 1.51701124e+02 4.55103373e+00 
255 378.36 1.57217460e+02 4.71652380e+00 
256 379.17 1.50096001e+02 4.50288002e+00 
257 379.98 1.45806142e+02 4.37418425e+00 
258 380.78 1.46351264e+02 4.39053793e+00 
259 381.59 1.35431138e+02 4.06293413e+00 
260 382.40 1.15533390e+02 3.46600170e+00 
261 383.21 1.04482977e+02 3.13448931e+00 
262 384.01 1.11631719e+02 3.34895156e+00 
263 384.82 1.27190294e+02 3.81570882e+00 
264 385.63 1.34889590e+02 4.04668769e+00 
265 386.43 1.36368454e+02 4.09105361e+00 
266 387.24 1.37516606e+02 4.12549819e+00 
267 388.05 1.39452961e+02 4.18358882e+00 
268 388.85 1.47196842e+02 4.41590525e+00 
269 389.66 1.61065347e+02 4.83196041e+00 
270 390.47 1.73379865e+02 5.20139594e+00 
271 391.27 1.76509810e+02 5.29529430e+00 
272 392.08 1.60642077e+02 4.81926230e+00 
273 392.89 1.31062799e+02 3.93188398e+00 
274 393.69 1.20212800e+02 3.60638399e+00 
275 394.50 1.41968688e+02 4.25906065e+00 
276 395.31 1.62655336e+02 4.87966007e+00 
277 396.11 1.54585267e+02 4.63755802e+00 
278 396.92 1.43997835e+02 4.31993505e+00 
279 397.73 1.66685569e+02 5.00056706e+00 
280 398.53 2.07847558e+02 6.23542673e+00 
281 399.34 2.35960802e+02 7.07882405e+00 
282 400.15 2.49592208e+02 7.48776623e+00 
283 400.95 2.58714316e+02 7.76142949e+00 
284 401.76 2.66238746e+02 7.98716237e+00 
285 402.57 2.69171992e+02 8.07515976e+00 
286 403.37 2.68001171e+02 8.04003513e+00 
287 404.18 2.66822586e+02 8.00467757e+00 
288 404.98 2.65818130e+02 7.97454390e+00 
289 405.79 2.64519726e+02 7.93559178e+00 
290 406.60 2.64877694e+02 7.94633083e+00 
291 407.40 2.70593678e+02 8.11781034e+00 
292 408.21 2.80832415e+02 8.42497245e+00 
293 409.02 2.85951276e+02 8.57853829e+00 
294 409.82 2.82925081e+02 8.48775243e+00 
295 410.63 2.84832130e+02 8.54496389e+00 
296 411.44 2.97165133e+02 8.91495398e+00 
297 412.24 3.06875995e+02 9.20627985e+00 
298 413.05 3.08625105e+02 9.25875314e+00 
299 413.85 3.08634178e+02 9.25902535e+00 
300 414.66 3.09462450e+02 9.28387350e+00 
301 415.46 3.10974889e+02 9.32924668e+00 
302 416.27 3.12095597e+02 9.36286791e+00 
303 417.08 3.09289608e+02 9.27868825e+00 
304 417.88 3.04518218e+02 9.13554655e+00 
305 418.69 3.02527685e+02 9.07583054e+00 
306 419.49 3.03519587e+02 9.10558761e+00 
307 420.30 3.07609092e+02 9.22827275e+00 
308 421.11 3.11890454e+02 9.35671362e+00 
309 421.91 3.10545652e+02 9.31636956e+00 
310 422.72 3.05297667e+02 9.15893000e+00 
311 423.52 3.04445466e+02 9.13336398e+00 
312 424.33 3.07750749e+02 9.23252246e+00 
313 425.13 3.09906027e+02 9.29718082e+00 
314 425.94 3.09698434e+02 9.29095301e+00 
315 426.74 3.08471049e+02 9.25413148e+00 
316 427.55 3.06917559e+02 9.20752677e+00 
317 428.35 3.02678370e+02 9.08035110e+00 
318 429.16 2.90544642e+02 8.71633926e+00 
319 429.96 2.75397120e+02 8.26191360e+00 
320 430.77 2.77468331e+02 8.32404993e+00 
321 431.58 3.03241405e+02 9.09724214e+00 
322 432.38 3.33298672e+02 9.99896015e+00 
323 433.19 3.48028498e+02 1.04408549e+01 
324 433.99 3.53644609e+02 1.06093383e+01 
325 434.80 3.64628827e+02 1.09388648e+01 
326 435.60 3.82153230e+02 1.14645969e+01 
327 436.41 3.95129302e+02 1.18538791e+01 
328 437.21 3.94887023e+02 1.18466107e+01 
329 438.02 3.87754525e+02 1.16326357e+01 
330 438.82 3.86483235e+02 1.15944970e+01 
331 439.63 3.95333528e+02 1.18600058e+01 
332 440.43 4.10425654e+02 1.23127696e+01 
333 441.24 4.26559892e+02 1.27967968e+01 
334 442.04 4.41425756e+02 1.32427727e+01 
335 442.84 4.51664703e+02 1.35499411e+01 
336 443.65 4.57263730e+02 1.37179119e+01 
337 444.45 4.58949566e+02 1.37684870e+01 
338 445.26 4.57473533e+02 1.37242060e+01 
339 446.06 4.58941289e+02 1.37682387e+01 
340 446.87 4.67708511e+02 1.40312553e+01 
341 447.67 4.80490972e+02 1.44147292e+01 
342 448.48 4.90671156e+02 1.47201347e+01 
343 449.28 4.99632153e+02 1.49889646e+01 
344 450.09 5.09944441e+02 1.52983332e+01 
345 450.89 5.16815682e+02 1.55044705e+01 
346 451.69 5.13301998e+02 1.53990599e+01 
347 452.50 5.03029649e+02 1.50908895e+01 
348 453.30 4.96740578e+02 1.49022173e+01 
349 454.11 4.98275912e+02 1.49482774e+01 
350 454.91 5.05466998e+02 1.51640099e+01 
351 455.72 5.13885965e+02 1.54165789e+01 
352 456.52 5.21234966e+02 1.56370490e+01 
353 457.32 5.24810672e+02 1.57443202e+01 
354 458.13 5.23936559e+02 1.57180968e+01 
355 458.93 5.22594154e+02 1.56778246e+01 
356 459.74 5.24950661e+02 1.57485198e+01 
357 460.54 5.31479205e+02 1.59443762e+01 
358 461.34 5.39089492e+02 1.61726848e+01 
359 462.15 5.44620627e+02 1.63386188e+01 
360 462.95 5.45310477e+02 1.63593143e+01 
361 463.76 5.42029477e+02 1.62608843e+01 
362 464.56 5.38166528e+02 1.61449958e+01 
363 465.36 5.35561159e+02 1.60668348e+01 
364 466.17 5.34281538e+02 1.60284461e+01 
365 466.97 5.34754340e+02 1.60426302e+01 
366 467.77 5.37287757e+02 1.61186327e+01 
367 468.58 5.40616868e+02 1.62185060e+01 
368 469.38 5.41571592e+02 1.62471478e+01 
369 470.18 5.41661718e+02 1.62498515e+01 
370 470.99 5.46118126e+02 1.63835438e+01 
371 471.79 5.54232476e+02 1.66269743e+01 
372 472.59 5.61852030e+02 1.68555609e+01 
373 473.40 5.67327911e+02 1.70198373e+01 
374 474.20 5.71071071e+02 1.71321321e+01 
375 475.00 5.73659233e+02 1.72097770e+01 
376 475.81 5.75266508e+02 1.72579953e+01 
377 476.61 5.78240572e+02 1.73472172e+01 
378 477.41 5.83815670e+02 1.75144701e+01 
379 478.21 5.89657762e+02 1.76897329e+01 
380 479.02 5.93600097e+02 1.78080029e+01 
381 479.82 5.95542938e+02 1.78662882e+01 
382 480.62 5.97835466e+02 1.79350640e+01 
383 481.43 5.99127171e+02 1.79738151e+01 
384 482.23 5.98178935e+02 1.79453680e+01 
385 483.03 5.94111944e+02 1.78233583e+01 
386 483.84 5.85228164e+02 1.75568449e+01 
387 484.64 5.67810284e+02 1.70343085e+01 
388 485.44 5.44935520e+02 1.63480656e+01 
389 486.24 5.29831727e+02 1.58949518e+01 
390 487.05 5.30693264e+02 1.59207979e+01 
391 487.85 5.45066516e+02 1.63519955e+01 
392 488.65 5.63229950e+02 1.68968985e+01 
393 489.45 5.76196715e+02 1.72859014e+01 
394 490.26 5.81163368e+02 1.74349010e+01 
395 491.06 5.79448026e+02 1.73834408e+01 
396 491.86 5.74932735e+02 1.72479820e+01 
397 492.66 5.73859026e+02 1.72157708e+01 
398 493.46 5.78935130e+02 1.73680539e+01 
399 494.27 5.86109480e+02 1.75832844e+01 
400 495.07 5.90609992e+02 1.77182998e+01 
401 495.87 5.92677474e+02 1.77803242e+01 
402 496.67 5.90854126e+02 1.77256238e+01 
403 497.48 5.86461364e+02 1.75938409e+01 
404 498.28 5.81709570e+02 1.74512871e+01 
405 499.08 5.76223545e+02 1.72867064e+01 
406 499.88 5.70055965e+02 1.71016790e+01 
407 500.68 5.64400263e+02 1.69320079e+01 
408 501.48 5.61103155e+02 1.68330946e+01 
409 502.29 5.62466157e+02 1.68739847e+01 
410 503.09 5.66376368e+02 1.69912910e+01 
411 503.89 5.71550196e+02 1.71465059e+01 
412 504.69 5.77744919e+02 1.73323476e+01 
413 505.49 5.83065955e+02 1.74919787e+01 
414 506.29 5.84905049e+02 1.75471515e+01 
415 507.09 5.82502502e+02 1.74750751e+01 
416 507.90 5.79126954e+02 1.73738086e+01 
417 508.70 5.77681847e+02 1.73304554e+01 
418 509.50 5.78168007e+02 1.73450402e+01 
419 510.30 5.79282304e+02 1.73784691e+01 
420 511.10 5.78554590e+02 1.73566377e+01 
421 511.90 5.74878402e+02 1.72463520e+01 
422 512.70 5.68764519e+02 1.70629356e+01 
423 513.51 5.61824347e+02 1.68547304e+01 
424 514.31 5.56404790e+02 1.66921437e+01 
425 515.11 5.49175447e+02 1.64752634e+01 
426 515.91 5.36175005e+02 1.60852502e+01 
427 516.71 5.21529949e+02 1.56458985e+01 
428 517.51 5.12286425e+02 1.53685927e+01 
429 518.31 5.14260801e+02 1.54278240e+01 
430 519.11 5.26054788e+02 1.57816437e+01 
431 519.91 5.39014513e+02 1.61704354e+01 
432 520.71 5.48925315e+02 1.64677594e+01 
433 521.51 5.53202331e+02 1.65960699e+01 
434 522.32 5.54939439e+02 1.66481832e+01 
435 523.12 5.58320736e+02 1.67496221e+01 
436 523.92 5.62548834e+02 1.68764650e+01 
437 524.72 5.63550320e+02 1.69065096e+01 
438 525.52 5.56952445e+02 1.67085733e+01 
439 526.32 5.46921254e+02 1.64076376e+01 
440 527.12 5.43790454e+02 1.63137136e+01 
441 527.92 5.50355346e+02 1.65106604e+01 
442 528.72 5.62799331e+02 1.68839799e+01 
443 529.52 5.74218672e+02 1.72265601e+01 
444 530.32 5.79908826e+02 1.73972648e+01 
445 531.12 5.78828821e+02 1.73648646e+01 
446 531.92 5.73565846e+02 1.72069754e+01 
447 532.72 5.67936496e+02 1.70380949e+01 
448 533.52 5.66179453e+02 1.69853836e+01 
449 534.32 5.69752935e+02 1.70925880e+01 
450 535.12 5.74407083e+02 1.72322125e+01 
451 535.92 5.75747959e+02 1.72724388e+01 
452 536.72 5.74416961e+02 1.72325088e+01 
453 537.52 5.72116717e+02 1.71635015e+01 
454 538.32 5.68869730e+02 1.70660919e+01 
455 539.12 5.64453077e+02 1.69335923e+01 
456 539.92 5.60005992e+02 1.68001798e+01 
457 540.72 5.58147592e+02 1.67444278e+01 
458 541.52 5.59912114e+02 1.67973634e+01 
459 542.32 5.64335333e+02 1.69300600e+01 
460 543.12 5.68722266e+02 1.70616680e+01 
461 543.92 5.71796196e+02 1.71538859e+01 
462 544.72 5.73515769e+02 1.72054731e+01 
463 545.52 5.73277686e+02 1.71983306e+01 
464 546.31 5.70628055e+02 1.71188417e+01 
465 547.12 5.67119753e+02 1.70135926e+01 
466 547.91 5.64965601e+02 1.69489680e+01 
467 548.71 5.64521114e+02 1.69356334e+01 
468 549.51 5.65050694e+02 1.69515208e+01 
469 550.31 5.65183451e+02 1.69555035e+01 
470 551.11 5.64891026e+02 1.69467308e+01 
471 551.91 5.64798798e+02 1.69439639e+01 
472 552.71 5.64833329e+02 1.69449999e+01 
