% C0 (TOA Count Rate, /ms) for 4STAR VIS spectrometer (1044 channels) derived from 4STAR_20160927starsun.mat and recorded on 2017-06-26 15:15:57.
% Using the MLO from September 2016 high altitude AOD for stratospheric AOD component, calculating the c0 from the AOD at low airmass. 
Pix Wavelength C0 C0err
0 173.18 0.00000000e+00 0.00000000e+00 
1 173.98 -1.00000000e+00 0.00000000e+00 
2 174.77 -1.00000000e+00 0.00000000e+00 
3 175.56 -1.00000000e+00 0.00000000e+00 
4 176.36 -1.00000000e+00 0.00000000e+00 
5 177.15 -1.00000000e+00 0.00000000e+00 
6 177.94 -1.00000000e+00 0.00000000e+00 
7 178.74 -1.00000000e+00 0.00000000e+00 
8 179.53 -1.00000000e+00 0.00000000e+00 
9 180.33 -1.00000000e+00 0.00000000e+00 
10 181.12 -1.00000000e+00 0.00000000e+00 
11 181.92 -1.00000000e+00 0.00000000e+00 
12 182.71 -1.00000000e+00 0.00000000e+00 
13 183.51 -1.00000000e+00 0.00000000e+00 
14 184.30 -1.00000000e+00 0.00000000e+00 
15 185.10 -1.00000000e+00 0.00000000e+00 
16 185.89 -1.00000000e+00 0.00000000e+00 
17 186.69 -1.00000000e+00 0.00000000e+00 
18 187.49 -1.00000000e+00 0.00000000e+00 
19 188.28 -1.00000000e+00 0.00000000e+00 
20 189.08 -1.00000000e+00 0.00000000e+00 
21 189.88 -1.00000000e+00 0.00000000e+00 
22 190.67 -1.00000000e+00 0.00000000e+00 
23 191.47 -1.00000000e+00 0.00000000e+00 
24 192.27 -1.00000000e+00 0.00000000e+00 
25 193.07 -1.00000000e+00 0.00000000e+00 
26 193.86 -1.00000000e+00 0.00000000e+00 
27 194.66 -1.00000000e+00 0.00000000e+00 
28 195.46 -1.00000000e+00 0.00000000e+00 
29 196.26 -1.00000000e+00 0.00000000e+00 
30 197.05 -1.00000000e+00 0.00000000e+00 
31 197.85 -1.00000000e+00 0.00000000e+00 
32 198.65 -1.00000000e+00 0.00000000e+00 
33 199.45 -1.00000000e+00 0.00000000e+00 
34 200.25 -1.00000000e+00 0.00000000e+00 
35 201.05 -1.00000000e+00 0.00000000e+00 
36 201.85 -1.00000000e+00 0.00000000e+00 
37 202.65 -1.00000000e+00 0.00000000e+00 
38 203.44 -1.00000000e+00 0.00000000e+00 
39 204.24 -1.00000000e+00 0.00000000e+00 
40 205.04 -1.00000000e+00 0.00000000e+00 
41 205.84 -1.00000000e+00 0.00000000e+00 
42 206.64 -1.00000000e+00 0.00000000e+00 
43 207.44 -1.00000000e+00 0.00000000e+00 
44 208.24 -1.00000000e+00 0.00000000e+00 
45 209.04 -1.00000000e+00 0.00000000e+00 
46 209.84 -1.00000000e+00 0.00000000e+00 
47 210.64 -1.00000000e+00 0.00000000e+00 
48 211.44 -1.00000000e+00 0.00000000e+00 
49 212.24 -1.00000000e+00 0.00000000e+00 
50 213.04 -1.00000000e+00 -1.00000000e+00 
51 213.85 -1.00000000e+00 -1.00000000e+00 
52 214.65 -1.00000000e+00 -1.00000000e+00 
53 215.45 8.06887089e+34 -1.00000000e+00 
54 216.25 8.96230893e+33 -1.00000000e+00 
55 217.05 9.42720277e+32 -1.00000000e+00 
56 217.85 1.06045387e+32 -1.00000000e+00 
57 218.65 1.19183306e+31 -1.00000000e+00 
58 219.46 1.31506996e+30 -1.00000000e+00 
59 220.26 1.44971183e+29 -1.00000000e+00 
60 221.06 1.58962943e+28 -1.00000000e+00 
61 221.86 1.78172275e+27 -1.00000000e+00 
62 222.66 1.94464598e+26 -1.00000000e+00 
63 223.47 2.14237004e+25 -1.00000000e+00 
64 224.27 2.40251793e+24 -1.00000000e+00 
65 225.07 2.70417937e+23 -1.00000000e+00 
66 225.87 3.02995563e+22 -1.00000000e+00 
67 226.68 3.40489865e+21 -1.00000000e+00 
68 227.48 4.08832798e+20 -1.00000000e+00 
69 228.28 5.63625098e+19 -1.00000000e+00 
70 229.08 1.12387758e+19 -1.00000000e+00 
71 229.89 4.29812152e+18 4.26170569e+17 
72 230.69 4.13205733e+18 4.17066510e+17 
73 231.49 1.07257711e+19 -1.00000000e+00 
74 232.30 6.12920514e+19 -1.00000000e+00 
75 233.10 5.61502750e+20 -1.00000000e+00 
76 233.90 6.41197745e+21 -1.00000000e+00 
77 234.71 8.10451486e+22 -1.00000000e+00 
78 235.51 1.04180869e+24 -1.00000000e+00 
79 236.32 1.37086241e+25 -1.00000000e+00 
80 237.12 1.82994155e+26 -1.00000000e+00 
81 237.92 2.52048283e+27 -1.00000000e+00 
82 238.73 3.48256394e+28 -1.00000000e+00 
83 239.53 4.84324546e+29 -1.00000000e+00 
84 240.34 6.43024198e+30 -1.00000000e+00 
85 241.14 8.16022994e+31 -1.00000000e+00 
86 241.94 9.28362184e+32 -1.00000000e+00 
87 242.75 9.53672858e+33 -1.00000000e+00 
88 243.55 9.35953678e+34 -1.00000000e+00 
89 244.36 -1.00000000e+00 -1.00000000e+00 
90 245.16 -1.00000000e+00 -1.00000000e+00 
91 245.97 -1.00000000e+00 -1.00000000e+00 
92 246.77 -1.00000000e+00 -1.00000000e+00 
93 247.58 -1.00000000e+00 0.00000000e+00 
94 248.38 -1.00000000e+00 0.00000000e+00 
95 249.19 -1.00000000e+00 0.00000000e+00 
96 249.99 -1.00000000e+00 0.00000000e+00 
97 250.80 -1.00000000e+00 0.00000000e+00 
98 251.60 -1.00000000e+00 0.00000000e+00 
99 252.41 -1.00000000e+00 0.00000000e+00 
100 253.21 -1.00000000e+00 0.00000000e+00 
101 254.02 -1.00000000e+00 0.00000000e+00 
102 254.82 -1.00000000e+00 0.00000000e+00 
103 255.63 -1.00000000e+00 0.00000000e+00 
104 256.44 -1.00000000e+00 0.00000000e+00 
105 257.24 -1.00000000e+00 0.00000000e+00 
106 258.05 -1.00000000e+00 0.00000000e+00 
107 258.85 -1.00000000e+00 0.00000000e+00 
108 259.66 -1.00000000e+00 0.00000000e+00 
109 260.46 -1.00000000e+00 0.00000000e+00 
110 261.27 -1.00000000e+00 0.00000000e+00 
111 262.08 -1.00000000e+00 0.00000000e+00 
112 262.88 -1.00000000e+00 -1.00000000e+00 
113 263.69 -1.00000000e+00 -1.00000000e+00 
114 264.49 -1.00000000e+00 -1.00000000e+00 
115 265.30 3.14894808e+35 -1.00000000e+00 
116 266.11 2.97551293e+34 -1.00000000e+00 
117 266.91 2.51832750e+33 -1.00000000e+00 
118 267.72 1.80588488e+32 -1.00000000e+00 
119 268.53 1.08109969e+31 -1.00000000e+00 
120 269.33 7.18376665e+29 -1.00000000e+00 
121 270.14 5.55636002e+28 -1.00000000e+00 
122 270.95 4.11155760e+27 -1.00000000e+00 
123 271.75 2.67444659e+26 -1.00000000e+00 
124 272.56 1.60141362e+25 -1.00000000e+00 
125 273.37 8.31504067e+23 -1.00000000e+00 
126 274.17 4.37951420e+22 -1.00000000e+00 
127 274.98 2.61372963e+21 -1.00000000e+00 
128 275.79 1.81029206e+20 -1.00000000e+00 
129 276.59 1.40704514e+19 -1.00000000e+00 
130 277.40 1.10479244e+18 1.06314666e+17 
131 278.21 8.54937893e+16 7.71206690e+15 
132 279.01 6.89008532e+15 5.88849680e+14 
133 279.82 6.25015318e+14 5.05067350e+13 
134 280.63 5.42626797e+13 4.15261367e+12 
135 281.43 4.93361247e+12 3.50768103e+11 
136 282.24 5.80987322e+11 3.99224300e+10 
137 283.05 7.90017720e+10 5.17561907e+09 
138 283.86 1.16807762e+10 7.16671936e+08 
139 284.66 1.78311091e+09 1.03259032e+08 
140 285.47 3.03384832e+08 1.64748860e+07 
141 286.28 6.53776480e+07 3.45798100e+06 
142 287.09 1.44379070e+07 7.39855625e+05 
143 287.89 3.36410975e+06 1.60443969e+05 
144 288.70 8.32164188e+05 3.92440625e+04 
145 289.51 2.48270703e+05 1.15843242e+04 
146 290.32 8.20377656e+04 3.71134009e+03 
147 291.12 2.87253887e+04 1.26447400e+03 
148 291.93 1.03921367e+04 4.52933380e+02 
149 292.74 4.12480176e+03 1.67139175e+02 
150 293.55 1.82372974e+03 7.33632736e+01 
151 294.35 8.67158875e+02 3.59861298e+01 
152 295.16 4.30066711e+02 1.77050591e+01 
153 295.97 2.30602127e+02 9.10941219e+00 
154 296.78 1.27125816e+02 4.93834543e+00 
155 297.58 7.49709396e+01 2.90220594e+00 
156 298.39 4.62066956e+01 1.74682856e+00 
157 299.20 3.08082027e+01 1.09356403e+00 
158 300.01 2.12435627e+01 7.86944091e-01 
159 300.81 1.49153299e+01 5.47550261e-01 
160 301.62 1.11133537e+01 4.38047260e-01 
161 302.43 8.42162323e+00 2.99496204e-01 
162 303.24 6.63184834e+00 2.25377232e-01 
163 304.04 5.28261185e+00 1.91512704e-01 
164 304.85 4.33271408e+00 1.55091718e-01 
165 305.66 3.65432525e+00 1.30436257e-01 
166 306.47 3.04584193e+00 1.08865999e-01 
167 307.28 2.72349024e+00 9.52252671e-02 
168 308.08 2.37494874e+00 7.85702169e-02 
169 308.89 2.14751887e+00 7.37208426e-02 
170 309.70 1.94454241e+00 6.63198084e-02 
171 310.51 1.79145110e+00 6.06404245e-02 
172 311.32 1.65796018e+00 5.57086617e-02 
173 312.12 1.50541461e+00 4.85839695e-02 
174 312.93 1.42323899e+00 4.82631437e-02 
175 313.74 1.32080078e+00 8.41685012e-02 
176 314.55 1.28705096e+00 4.27118540e-02 
177 315.36 1.23212528e+00 3.81059982e-02 
178 316.16 1.18229973e+00 3.68835367e-02 
179 316.97 1.17214894e+00 3.66624631e-02 
180 317.78 1.14609981e+00 3.49244997e-02 
181 318.59 1.12816870e+00 3.42501439e-02 
182 319.40 1.11496341e+00 3.37704718e-02 
183 320.20 1.11218202e+00 3.22511904e-02 
184 321.01 1.10846722e+00 3.19803059e-02 
185 321.82 1.10085189e+00 3.44627388e-02 
186 322.63 1.11001301e+00 3.22092026e-02 
187 323.43 1.10175097e+00 3.10587715e-02 
188 324.24 1.10903490e+00 3.05049848e-02 
189 325.05 1.13976085e+00 3.04435901e-02 
190 325.86 1.14163053e+00 2.93456893e-02 
191 326.67 1.17227948e+00 2.85802316e-02 
192 327.48 1.17832673e+00 3.12429368e-02 
193 328.28 1.21722078e+00 2.97255609e-02 
194 329.09 1.22715950e+00 3.03315129e-02 
195 329.90 1.27329326e+00 3.08243837e-02 
196 330.71 1.34155619e+00 2.89596934e-02 
197 331.52 1.40817010e+00 2.88807284e-02 
198 332.32 1.56129587e+00 3.08595449e-02 
199 333.13 1.83410835e+00 3.16485502e-02 
200 333.94 2.34108543e+00 3.46377902e-02 
201 334.75 3.12416553e+00 3.80078070e-02 
202 335.55 4.21396685e+00 4.11752835e-02 
203 336.36 5.73366833e+00 5.22520728e-02 
204 337.17 8.08026505e+00 6.07042052e-02 
205 337.98 1.13453875e+01 7.46247694e-02 
206 338.79 1.51646700e+01 9.07022357e-02 
207 339.60 1.94796906e+01 9.89397466e-02 
208 340.40 2.32912083e+01 1.13145918e-01 
209 341.21 2.64707489e+01 1.18224584e-01 
210 342.02 3.02565250e+01 1.28684253e-01 
211 342.83 3.36009064e+01 1.30821332e-01 
212 343.63 3.44774742e+01 1.25293896e-01 
213 344.44 3.56014023e+01 1.28864765e-01 
214 345.25 3.94848557e+01 1.35411844e-01 
215 346.06 4.31786079e+01 1.50694773e-01 
216 346.87 4.55934601e+01 1.44301608e-01 
217 347.67 4.72828598e+01 1.41026765e-01 
218 348.48 4.88637238e+01 1.41517326e-01 
219 349.29 5.17062950e+01 1.51619494e-01 
220 350.10 5.66846237e+01 1.59221768e-01 
221 350.90 6.01461678e+01 1.63135707e-01 
222 351.71 6.02897758e+01 1.64101630e-01 
223 352.52 6.13118019e+01 1.67012155e-01 
224 353.33 6.66144104e+01 1.79844931e-01 
225 354.14 7.34042816e+01 1.91956446e-01 
226 354.94 7.64852371e+01 1.83269069e-01 
227 355.75 7.51796341e+01 1.88962728e-01 
228 356.56 7.08135452e+01 1.80778056e-01 
229 357.37 6.64826050e+01 1.66497186e-01 
230 358.18 6.54840393e+01 1.72507778e-01 
231 358.98 7.32657013e+01 1.89947367e-01 
232 359.79 8.45420609e+01 2.04633608e-01 
233 360.60 8.61862259e+01 2.10526258e-01 
234 361.41 8.47492447e+01 1.92502230e-01 
235 362.21 8.92196655e+01 2.14897126e-01 
236 363.02 9.45261154e+01 2.15924174e-01 
237 363.83 9.76570358e+01 2.02112928e-01 
238 364.64 1.02351013e+02 2.26080537e-01 
239 365.44 1.11512032e+02 2.35400245e-01 
240 366.25 1.19627228e+02 2.58181304e-01 
241 367.06 1.20782227e+02 2.57468373e-01 
242 367.87 1.18836578e+02 2.37817988e-01 
243 368.67 1.20395897e+02 2.48771757e-01 
244 369.48 1.25637016e+02 2.64738858e-01 
245 370.29 1.26953392e+02 2.60476172e-01 
246 371.10 1.25556725e+02 2.60592610e-01 
247 371.90 1.22444641e+02 2.54566878e-01 
248 372.71 1.15749748e+02 2.27318361e-01 
249 373.52 1.09348442e+02 2.16974378e-01 
250 374.33 1.08616051e+02 2.25839257e-01 
251 375.13 1.16093781e+02 2.28735596e-01 
252 375.94 1.26596336e+02 2.63724506e-01 
253 376.75 1.37782150e+02 2.75576413e-01 
254 377.56 1.50810867e+02 2.81652212e-01 
255 378.36 1.54687317e+02 2.86930650e-01 
256 379.17 1.46905975e+02 2.73160011e-01 
257 379.98 1.43421082e+02 2.70117134e-01 
258 380.78 1.43293213e+02 2.65052110e-01 
259 381.59 1.31082657e+02 2.44230628e-01 
260 382.40 1.11674500e+02 2.13515610e-01 
261 383.20 1.02456108e+02 2.09922314e-01 
262 384.01 1.10778877e+02 2.20445678e-01 
263 384.82 1.25416191e+02 2.33449399e-01 
264 385.63 1.31651550e+02 2.54675657e-01 
265 386.43 1.32747299e+02 2.49674782e-01 
266 387.24 1.33648865e+02 2.63092041e-01 
267 388.05 1.35685715e+02 2.69502550e-01 
268 388.85 1.43660706e+02 2.73458183e-01 
269 389.66 1.56953400e+02 2.75141388e-01 
270 390.47 1.67658401e+02 3.05326134e-01 
271 391.27 1.68651474e+02 3.02098066e-01 
272 392.08 1.50874908e+02 2.73350745e-01 
273 392.89 1.22517960e+02 2.47423157e-01 
274 393.69 1.15116936e+02 2.29749918e-01 
275 394.50 1.36917175e+02 2.55202264e-01 
276 395.31 1.53632233e+02 2.76867002e-01 
277 396.11 1.43694733e+02 2.72752017e-01 
278 396.92 1.35555923e+02 2.40446717e-01 
279 397.73 1.59108459e+02 2.88385451e-01 
280 398.53 1.96337402e+02 3.37254882e-01 
281 399.34 2.20216019e+02 3.29208076e-01 
282 400.15 2.31714310e+02 3.51464510e-01 
283 400.95 2.39648102e+02 3.78969610e-01 
284 401.76 2.46035660e+02 3.94597948e-01 
285 402.57 2.47945969e+02 3.84580731e-01 
286 403.37 2.46371765e+02 3.80085826e-01 
287 404.18 2.44982605e+02 3.92440230e-01 
288 404.99 2.43693756e+02 3.87703806e-01 
289 405.79 2.42425354e+02 3.84497702e-01 
290 406.60 2.43139343e+02 3.84115785e-01 
291 407.40 2.49013275e+02 3.96751851e-01 
292 408.21 2.58464844e+02 3.85307938e-01 
293 409.02 2.62306488e+02 4.13036108e-01 
294 409.82 2.59256836e+02 3.99120420e-01 
295 410.63 2.61872467e+02 4.12934214e-01 
296 411.43 2.72849152e+02 4.22644556e-01 
297 412.24 2.80324615e+02 4.63806868e-01 
298 413.05 2.81071259e+02 4.50127691e-01 
299 413.85 2.80743530e+02 4.62367594e-01 
300 414.66 2.81045959e+02 4.65029955e-01 
301 415.46 2.81924744e+02 4.59680378e-01 
302 416.27 2.81866272e+02 4.56566215e-01 
303 417.08 2.78046997e+02 4.11345303e-01 
304 417.88 2.72892365e+02 4.23197448e-01 
305 418.69 2.70446564e+02 4.06992257e-01 
306 419.49 2.70790771e+02 4.32204634e-01 
307 420.30 2.74012390e+02 3.90101165e-01 
308 421.11 2.76993683e+02 4.11185443e-01 
309 421.91 2.74862213e+02 3.93590122e-01 
310 422.72 2.70215393e+02 3.69472265e-01 
311 423.52 2.69810364e+02 3.65728706e-01 
312 424.33 2.72712891e+02 3.57187718e-01 
313 425.13 2.74637360e+02 3.57920855e-01 
314 425.94 2.74816284e+02 3.47481817e-01 
315 426.74 2.74443542e+02 3.64030212e-01 
316 427.55 2.73991516e+02 3.51587743e-01 
317 428.36 2.70815247e+02 3.48065823e-01 
318 429.16 2.60650208e+02 3.37638021e-01 
319 429.96 2.49673859e+02 3.11676800e-01 
320 430.77 2.56146271e+02 3.07768494e-01 
321 431.58 2.83242676e+02 3.37875903e-01 
322 432.38 3.11825836e+02 3.55672330e-01 
323 433.19 3.26181183e+02 3.62973183e-01 
324 433.99 3.33927032e+02 4.02994514e-01 
325 434.80 3.47598053e+02 4.06347752e-01 
326 435.60 3.66765778e+02 4.31168467e-01 
327 436.41 3.80343658e+02 4.66040343e-01 
328 437.21 3.81421265e+02 4.59542960e-01 
329 438.02 3.77034393e+02 4.42074388e-01 
330 438.82 3.79247253e+02 4.70624954e-01 
331 439.63 3.90725586e+02 5.08032203e-01 
332 440.43 4.07570953e+02 4.89338607e-01 
333 441.24 4.25169067e+02 5.16127110e-01 
334 442.04 4.41092865e+02 5.38678467e-01 
335 442.85 4.52340302e+02 5.82757831e-01 
336 443.65 4.59084076e+02 5.77456117e-01 
337 444.45 4.61856079e+02 5.82619786e-01 
338 445.26 4.61816895e+02 5.95177293e-01 
339 446.06 4.65420563e+02 5.94309151e-01 
340 446.87 4.76203522e+02 5.74959576e-01 
341 447.67 4.90039459e+02 5.96629024e-01 
342 448.48 5.01032623e+02 6.60405099e-01 
343 449.28 5.11097809e+02 6.74116492e-01 
344 450.09 5.22169373e+02 6.59885228e-01 
345 450.89 5.28715759e+02 6.54550612e-01 
346 451.70 5.24408325e+02 6.78077638e-01 
347 452.50 5.14525574e+02 6.68185115e-01 
348 453.30 5.09612091e+02 6.91726387e-01 
349 454.11 5.12515686e+02 6.77521169e-01 
350 454.91 5.20503540e+02 7.08602548e-01 
351 455.72 5.29378540e+02 6.99126184e-01 
352 456.52 5.36668579e+02 7.12222099e-01 
353 457.32 5.39955505e+02 7.24623263e-01 
354 458.13 5.38849609e+02 6.99179888e-01 
355 458.93 5.37749023e+02 7.02883303e-01 
356 459.74 5.40931946e+02 7.34249234e-01 
357 460.54 5.48082703e+02 7.37805367e-01 
358 461.34 5.56246582e+02 7.70946920e-01 
359 462.15 5.61761230e+02 7.32403338e-01 
360 462.95 5.62056885e+02 7.42432654e-01 
361 463.76 5.58471497e+02 7.24020123e-01 
362 464.56 5.54773376e+02 7.42415726e-01 
363 465.36 5.52298767e+02 7.27461517e-01 
364 466.17 5.51186829e+02 7.30124533e-01 
365 466.97 5.51972290e+02 7.31669724e-01 
366 467.77 5.54664246e+02 7.02173114e-01 
367 468.58 5.57700012e+02 7.37786472e-01 
368 469.38 5.58427917e+02 7.22149849e-01 
369 470.18 5.59174988e+02 7.49039352e-01 
370 470.99 5.64793701e+02 7.13455021e-01 
371 471.79 5.73418213e+02 7.42648125e-01 
372 472.59 5.81109863e+02 7.45941877e-01 
373 473.40 5.86302551e+02 7.89572954e-01 
374 474.20 5.89786560e+02 7.43934453e-01 
375 475.00 5.92121460e+02 7.59503126e-01 
376 475.81 5.93944519e+02 7.72563756e-01 
377 476.61 5.97387268e+02 8.01304936e-01 
378 477.41 6.03397034e+02 7.98320770e-01 
379 478.21 6.09416931e+02 7.64899909e-01 
380 479.02 6.13630554e+02 7.75772691e-01 
381 479.82 6.16054504e+02 8.11509669e-01 
382 480.62 6.18780640e+02 7.86640346e-01 
383 481.43 6.20298279e+02 7.67795920e-01 
384 482.23 6.19260254e+02 7.49771833e-01 
385 483.03 6.14918640e+02 7.54820228e-01 
386 483.84 6.05072632e+02 7.20025301e-01 
387 484.64 5.85966248e+02 7.04276860e-01 
388 485.44 5.62465088e+02 7.15327382e-01 
389 486.24 5.48508240e+02 6.49147093e-01 
390 487.04 5.51062073e+02 6.70801580e-01 
391 487.85 5.66842590e+02 6.78750336e-01 
392 488.65 5.85758240e+02 6.95625126e-01 
393 489.45 5.98951965e+02 6.73085868e-01 
394 490.26 6.03668823e+02 7.17413127e-01 
395 491.06 6.01763062e+02 7.03265429e-01 
396 491.86 5.97826660e+02 6.93786979e-01 
397 492.66 5.97726807e+02 7.06164300e-01 
398 493.46 6.03657837e+02 7.27577507e-01 
399 494.27 6.10782410e+02 7.28436053e-01 
400 495.07 6.14760132e+02 7.28286564e-01 
401 495.87 6.16426270e+02 6.99971139e-01 
402 496.67 6.14096741e+02 7.38190651e-01 
403 497.48 6.09600891e+02 7.18286693e-01 
404 498.28 6.04923401e+02 7.53310621e-01 
405 499.08 5.99389648e+02 7.27260232e-01 
406 499.88 5.93276184e+02 7.08610415e-01 
407 500.68 5.87852234e+02 7.14732587e-01 
408 501.48 5.85264282e+02 6.80061519e-01 
409 502.29 5.87183655e+02 6.94179296e-01 
410 503.09 5.91391052e+02 7.01106012e-01 
411 503.89 5.96717896e+02 7.18619287e-01 
412 504.69 6.03110352e+02 6.89590454e-01 
413 505.49 6.08340210e+02 6.52095139e-01 
414 506.29 6.09685547e+02 6.41392410e-01 
415 507.09 6.07031555e+02 6.56437814e-01 
416 507.90 6.03788147e+02 6.92060411e-01 
417 508.70 6.02448792e+02 6.80952609e-01 
418 509.50 6.03023926e+02 7.10951447e-01 
419 510.30 6.04277344e+02 7.24733531e-01 
420 511.10 6.03584839e+02 7.01845825e-01 
421 511.90 5.99994507e+02 7.33531952e-01 
422 512.71 5.93777161e+02 7.45740712e-01 
423 513.51 5.86756836e+02 7.28846908e-01 
424 514.31 5.80940491e+02 7.21526682e-01 
425 515.11 5.72164124e+02 6.81770742e-01 
426 515.91 5.57348938e+02 6.43021047e-01 
427 516.71 5.42015808e+02 6.01548731e-01 
428 517.51 5.33188660e+02 6.33929849e-01 
429 518.31 5.36430969e+02 6.27764106e-01 
430 519.11 5.49340698e+02 6.48924172e-01 
431 519.91 5.62956360e+02 6.50767267e-01 
432 520.71 5.73248840e+02 6.75692797e-01 
433 521.52 5.77780640e+02 6.80221975e-01 
434 522.32 5.80169678e+02 6.74624264e-01 
435 523.12 5.84252625e+02 6.62236571e-01 
436 523.92 5.88554260e+02 6.61968529e-01 
437 524.72 5.88550598e+02 6.55219018e-01 
438 525.52 5.80525452e+02 6.40442431e-01 
439 526.32 5.70096008e+02 6.58600628e-01 
440 527.12 5.67617737e+02 6.58093095e-01 
441 527.92 5.75074280e+02 6.56743586e-01 
442 528.72 5.87976257e+02 7.11312413e-01 
443 529.52 5.99330078e+02 7.20919490e-01 
444 530.32 6.04495850e+02 7.13773787e-01 
445 531.12 6.02618225e+02 7.37439632e-01 
446 531.92 5.96868591e+02 7.15341330e-01 
447 532.72 5.91510620e+02 7.07590163e-01 
448 533.52 5.90597656e+02 7.12548912e-01 
449 534.32 5.94962402e+02 7.01182663e-01 
450 535.12 5.99856628e+02 6.95862293e-01 
451 535.92 6.01060608e+02 7.09186733e-01 
452 536.72 5.99524109e+02 7.11385965e-01 
453 537.52 5.96661133e+02 7.04450071e-01 
454 538.32 5.92490173e+02 6.88507974e-01 
455 539.12 5.87197876e+02 6.88281894e-01 
456 539.92 5.82262817e+02 6.63878858e-01 
457 540.72 5.80393311e+02 6.77759767e-01 
458 541.52 5.82063721e+02 7.18272924e-01 
459 542.32 5.86481079e+02 7.19239652e-01 
460 543.12 5.90916199e+02 7.31475055e-01 
461 543.92 5.94184631e+02 7.22308636e-01 
462 544.72 5.96304871e+02 7.02850282e-01 
463 545.52 5.96202148e+02 7.20445812e-01 
464 546.32 5.93617920e+02 7.01160192e-01 
465 547.12 5.90287720e+02 7.07505763e-01 
466 547.91 5.88425781e+02 7.22535849e-01 
467 548.71 5.88145508e+02 7.34649181e-01 
