% C0 (TOA Count Rate, /ms) for 4STAR VIS spectrometer (1044 channels) derived from 20160109starsun.mat and recorded on 2016-01-12 15:16:21.
% Data outside 2.0x the STD of 501 nm Langley residuals were screened out.
Pix Wavelength C0 C0err
0 173.18 -1.00000000e+00 -1.00000000e+00 
1 173.97 5.47222616e+01 1.64166785e+00 
2 174.77 8.80786233e+01 2.64235870e+00 
3 175.56 9.62811018e+01 2.88843305e+00 
4 176.36 3.20622556e+03 9.61867669e+01 
5 177.15 3.04951609e+03 9.14854828e+01 
6 177.94 2.72540352e+03 8.17621057e+01 
7 178.74 2.43127308e+03 7.29381923e+01 
8 179.53 2.25214058e+03 6.75642174e+01 
9 180.33 2.00290459e+03 6.00871378e+01 
10 181.12 1.76070862e+03 5.28212587e+01 
11 181.92 1.56809469e+03 4.70428408e+01 
12 182.71 1.43477023e+03 4.30431068e+01 
13 183.51 1.28211985e+03 3.84635955e+01 
14 184.30 1.13455336e+03 3.40366007e+01 
15 185.10 1.01612185e+03 3.04836555e+01 
16 185.89 9.17868796e+02 2.75360639e+01 
17 186.69 8.17909433e+02 2.45372830e+01 
18 187.49 7.40580990e+02 2.22174297e+01 
19 188.28 6.57727899e+02 1.97318370e+01 
20 189.08 5.90203013e+02 1.77060904e+01 
21 189.88 5.24636294e+02 1.57390888e+01 
22 190.67 4.82201776e+02 1.44660533e+01 
23 191.47 4.28062391e+02 1.28418717e+01 
24 192.27 3.86034917e+02 1.15810475e+01 
25 193.07 3.45749650e+02 1.03724895e+01 
26 193.86 3.01291997e+02 9.03875992e+00 
27 194.66 2.80189786e+02 8.40569357e+00 
28 195.46 2.45326335e+02 7.35979004e+00 
29 196.26 2.23221558e+02 6.69664673e+00 
30 197.05 2.00976628e+02 6.02929883e+00 
31 197.85 1.81230628e+02 5.43691884e+00 
32 198.65 1.61774720e+02 4.85324161e+00 
33 199.45 1.43934200e+02 4.31802600e+00 
34 200.25 1.32991523e+02 3.98974568e+00 
35 201.05 1.15170360e+02 3.45511079e+00 
36 201.85 1.03770528e+02 3.11311585e+00 
37 202.64 9.47340901e+01 2.84202270e+00 
38 203.44 8.43297074e+01 2.52989122e+00 
39 204.24 7.55428831e+01 2.26628649e+00 
40 205.04 6.95761866e+01 2.08728560e+00 
41 205.84 6.20827335e+01 1.86248200e+00 
42 206.64 5.63176672e+01 1.68953002e+00 
43 207.44 5.09246837e+01 1.52774051e+00 
44 208.24 4.60073008e+01 1.38021902e+00 
45 209.04 4.08445029e+01 1.22533509e+00 
46 209.84 3.71209715e+01 1.11362914e+00 
47 210.64 3.29731250e+01 9.89193749e-01 
48 211.44 3.01023912e+01 9.03071737e-01 
49 212.24 2.64940429e+01 7.94821288e-01 
50 213.05 2.43800233e+01 7.31400700e-01 
51 213.85 2.22409379e+01 6.67228136e-01 
52 214.65 1.97630028e+01 5.92890084e-01 
53 215.45 1.76081179e+01 5.28243538e-01 
54 216.25 1.59170489e+01 4.77511466e-01 
55 217.05 1.45175302e+01 4.35525907e-01 
56 217.85 1.28421759e+01 3.85265278e-01 
57 218.65 1.15975292e+01 3.47925875e-01 
58 219.46 1.04945029e+01 3.14835087e-01 
59 220.26 9.43576207e+00 2.83072862e-01 
60 221.06 8.45464222e+00 2.53639267e-01 
61 221.86 7.66371917e+00 2.29911575e-01 
62 222.66 6.72220308e+00 2.01666093e-01 
63 223.47 6.13131914e+00 1.83939574e-01 
64 224.27 5.58961656e+00 1.67688497e-01 
65 225.07 5.01542415e+00 1.50462724e-01 
66 225.87 4.57411753e+00 1.37223526e-01 
67 226.68 4.04698176e+00 1.21409453e-01 
68 227.48 3.69375750e+00 1.10812725e-01 
69 228.28 3.36328211e+00 1.00898463e-01 
70 229.09 3.07062525e+00 9.21187574e-02 
71 229.89 2.90726641e+00 8.72179923e-02 
72 230.69 2.93416124e+00 8.80248372e-02 
73 231.49 3.05577998e+00 9.16733995e-02 
74 232.30 3.25929272e+00 9.77787817e-02 
75 233.10 3.63845981e+00 1.09153794e-01 
76 233.91 4.18493581e+00 1.25548074e-01 
77 234.71 4.56027037e+00 1.36808111e-01 
78 235.51 5.38342535e+00 1.61502761e-01 
79 236.32 5.80612963e+00 1.74183889e-01 
80 237.12 6.68211334e+00 2.00463400e-01 
81 237.92 7.63616994e+00 2.29085098e-01 
82 238.73 8.46071543e+00 2.53821463e-01 
83 239.53 9.88594327e+00 2.96578298e-01 
84 240.34 1.10739540e+01 3.32218621e-01 
85 241.14 1.21234511e+01 3.63703532e-01 
86 241.94 1.37916171e+01 4.13748512e-01 
87 242.75 1.54562808e+01 4.63688423e-01 
88 243.55 1.69713883e+01 5.09141648e-01 
89 244.36 1.87527906e+01 5.62583717e-01 
90 245.16 2.04540336e+01 6.13621007e-01 
91 245.97 2.23679324e+01 6.71037973e-01 
92 246.77 2.48171713e+01 7.44515138e-01 
93 247.58 2.53563663e+01 7.60690989e-01 
94 248.38 2.87178881e+01 8.61536644e-01 
95 249.19 3.10434034e+01 9.31302101e-01 
96 249.99 3.17462031e+01 9.52386093e-01 
97 250.80 3.46637641e+01 1.03991292e+00 
98 251.60 3.48535406e+01 1.04560622e+00 
99 252.41 3.59959074e+01 1.07987722e+00 
100 253.21 3.72541693e+01 1.11762508e+00 
101 254.02 3.79349193e+01 1.13804758e+00 
102 254.83 3.81185318e+01 1.14355595e+00 
103 255.63 3.93884986e+01 1.18165496e+00 
104 256.44 3.73827177e+01 1.12148153e+00 
105 257.24 3.64390126e+01 1.09317038e+00 
106 258.05 3.54279633e+01 1.06283890e+00 
107 258.85 3.45187819e+01 1.03556346e+00 
108 259.66 3.31214893e+01 9.93644680e-01 
109 260.46 3.02989444e+01 9.08968331e-01 
110 261.27 2.82231250e+01 8.46693751e-01 
111 262.08 2.57869740e+01 7.73609220e-01 
112 262.88 2.35289454e+01 7.05868362e-01 
113 263.69 2.15112853e+01 6.45338559e-01 
114 264.50 2.01493734e+01 6.04481202e-01 
115 265.30 1.83003256e+01 5.49009768e-01 
116 266.11 1.66048123e+01 4.98144368e-01 
117 266.91 1.51690083e+01 4.55070248e-01 
118 267.72 1.29751526e+01 3.89254578e-01 
119 268.53 1.12027560e+01 3.36082679e-01 
120 269.33 9.80167563e+00 2.94050269e-01 
121 270.14 8.88050267e+00 2.66415080e-01 
122 270.95 7.94125064e+00 2.38237519e-01 
123 271.75 6.77483987e+00 2.03245196e-01 
124 272.56 6.11196742e+00 1.83359023e-01 
125 273.37 5.25331815e+00 1.57599544e-01 
126 274.17 4.50535634e+00 1.35160690e-01 
127 274.98 4.05857539e+00 1.21757262e-01 
128 275.79 3.54491943e+00 1.06347583e-01 
129 276.59 3.20609579e+00 9.61828737e-02 
130 277.40 2.88278125e+00 8.64834376e-02 
131 278.21 2.55326436e+00 7.65979309e-02 
132 279.01 2.26651713e+00 6.79955140e-02 
133 279.82 2.00166648e+00 6.00499943e-02 
134 280.63 1.74990291e+00 5.24970873e-02 
135 281.44 1.62710921e+00 4.88132764e-02 
136 282.24 1.48783448e+00 4.46350343e-02 
137 283.05 1.32170393e+00 3.96511179e-02 
138 283.86 1.22328222e+00 3.66984666e-02 
139 284.66 1.13766895e+00 3.41300684e-02 
140 285.47 1.01333813e+00 3.04001438e-02 
141 286.28 9.73132299e-01 2.91939690e-02 
142 287.09 8.66789238e-01 2.60036771e-02 
143 287.89 8.16131456e-01 2.44839437e-02 
144 288.70 7.85942307e-01 2.35782692e-02 
145 289.51 7.36884649e-01 2.21065395e-02 
146 290.32 6.93167674e-01 2.07950302e-02 
147 291.12 6.70187091e-01 2.01056127e-02 
148 291.93 6.36948479e-01 1.91084544e-02 
149 292.74 6.24628616e-01 1.87388585e-02 
150 293.55 6.00892940e-01 1.80267882e-02 
151 294.35 5.69231587e-01 1.70769476e-02 
152 295.16 5.62673738e-01 1.68802122e-02 
153 295.97 5.36115204e-01 1.60834561e-02 
154 296.78 5.20418324e-01 1.56125497e-02 
155 297.58 5.19960959e-01 1.55988288e-02 
156 298.39 5.04302829e-01 1.51290849e-02 
157 299.20 5.04206792e-01 1.51262038e-02 
158 300.01 4.93086532e-01 1.47925959e-02 
159 300.81 4.89154037e-01 1.46746211e-02 
160 301.62 4.90722505e-01 1.47216752e-02 
161 302.43 4.64674203e-01 1.39402261e-02 
162 303.24 4.62362676e-01 1.38708803e-02 
163 304.05 4.68794088e-01 1.40638226e-02 
164 304.85 4.47799116e-01 1.34339735e-02 
165 305.66 4.48284919e-01 1.34485476e-02 
166 306.47 4.47311638e-01 1.34193491e-02 
167 307.28 4.44911907e-01 1.33473572e-02 
168 308.08 4.62829555e-01 1.38848866e-02 
169 308.89 4.67716029e-01 1.40314809e-02 
170 309.70 4.48745557e-01 1.34623667e-02 
171 310.51 4.51224332e-01 1.35367300e-02 
172 311.32 4.57815601e-01 1.37344680e-02 
173 312.12 4.59055349e-01 1.37716605e-02 
174 312.93 4.58193665e-01 1.37458100e-02 
175 313.74 4.68532051e-01 1.40559615e-02 
176 314.55 4.74407523e-01 1.42322257e-02 
177 315.36 4.85802307e-01 1.45740692e-02 
178 316.16 4.95930609e-01 1.48779183e-02 
179 316.97 5.04537311e-01 1.51361193e-02 
180 317.78 5.03871646e-01 1.51161494e-02 
181 318.59 5.17726942e-01 1.55318083e-02 
182 319.39 5.39734067e-01 1.61920220e-02 
183 320.20 5.50767603e-01 1.65230281e-02 
184 321.01 5.69925168e-01 1.70977550e-02 
185 321.82 5.79712645e-01 1.73913793e-02 
186 322.63 5.90808243e-01 1.77242473e-02 
187 323.43 6.16127222e-01 1.84838167e-02 
188 324.24 6.46706706e-01 1.94012012e-02 
189 325.05 6.52331910e-01 1.95699573e-02 
190 325.86 6.84898428e-01 2.05469529e-02 
191 326.67 7.15399627e-01 2.14619888e-02 
192 327.48 7.44017108e-01 2.23205132e-02 
193 328.28 7.49362070e-01 2.24808621e-02 
194 329.09 7.98854952e-01 2.39656486e-02 
195 329.90 8.34886435e-01 2.50465931e-02 
196 330.71 8.72834341e-01 2.61850302e-02 
197 331.51 9.29064030e-01 2.78719209e-02 
198 332.32 1.03385298e+00 3.10155894e-02 
199 333.13 1.24616200e+00 3.73848599e-02 
200 333.94 1.62814991e+00 4.88444972e-02 
201 334.75 2.25369229e+00 6.76107687e-02 
202 335.56 3.17804307e+00 9.53412921e-02 
203 336.36 4.49720829e+00 1.34916249e-01 
204 337.17 6.61921706e+00 1.98576512e-01 
205 337.98 9.64566327e+00 2.89369898e-01 
206 338.79 1.33961333e+01 4.01883998e-01 
207 339.59 1.75946816e+01 5.27840449e-01 
208 340.40 2.15106486e+01 6.45319459e-01 
209 341.21 2.47519502e+01 7.42558507e-01 
210 342.02 2.84423325e+01 8.53269974e-01 
211 342.83 3.20087138e+01 9.60261413e-01 
212 343.64 3.31708718e+01 9.95126154e-01 
213 344.44 3.41928344e+01 1.02578503e+00 
214 345.25 3.79631641e+01 1.13889492e+00 
215 346.06 4.18246515e+01 1.25473955e+00 
216 346.87 4.43961853e+01 1.33188556e+00 
217 347.67 4.62490661e+01 1.38747198e+00 
218 348.48 4.78208470e+01 1.43462541e+00 
219 349.29 5.05440799e+01 1.51632240e+00 
220 350.10 5.54552334e+01 1.66365700e+00 
221 350.91 5.92228926e+01 1.77668678e+00 
222 351.71 5.96677114e+01 1.79003134e+00 
223 352.52 6.05443842e+01 1.81633153e+00 
224 353.33 6.56791688e+01 1.97037506e+00 
225 354.14 7.27650852e+01 2.18295255e+00 
226 354.94 7.63294884e+01 2.28988465e+00 
227 355.75 7.54670260e+01 2.26401078e+00 
228 356.56 7.12976646e+01 2.13892994e+00 
229 357.37 6.70175345e+01 2.01052603e+00 
230 358.18 6.56903914e+01 1.97071174e+00 
231 358.98 7.29480421e+01 2.18844126e+00 
232 359.79 8.48784203e+01 2.54635261e+00 
233 360.60 8.74885042e+01 2.62465513e+00 
234 361.41 8.57815119e+01 2.57344536e+00 
235 362.21 9.00210175e+01 2.70063053e+00 
236 363.02 9.56971514e+01 2.87091454e+00 
237 363.83 9.90696065e+01 2.97208820e+00 
238 364.64 1.03616410e+02 3.10849230e+00 
239 365.44 1.12660007e+02 3.37980021e+00 
240 366.25 1.21287629e+02 3.63862886e+00 
241 367.06 1.22993370e+02 3.68980111e+00 
242 367.87 1.21099491e+02 3.63298474e+00 
243 368.67 1.22416086e+02 3.67248259e+00 
244 369.48 1.27937355e+02 3.83812066e+00 
245 370.29 1.29827057e+02 3.89481171e+00 
246 371.10 1.28416183e+02 3.85248549e+00 
247 371.90 1.25452932e+02 3.76358797e+00 
248 372.71 1.18807817e+02 3.56423450e+00 
249 373.52 1.11995384e+02 3.35986152e+00 
250 374.33 1.10627664e+02 3.31882993e+00 
251 375.13 1.17796013e+02 3.53388040e+00 
252 375.94 1.28590005e+02 3.85770015e+00 
253 376.75 1.39778155e+02 4.19334464e+00 
254 377.55 1.53167835e+02 4.59503505e+00 
255 378.36 1.58339725e+02 4.75019174e+00 
256 379.17 1.50911659e+02 4.52734976e+00 
257 379.98 1.46722349e+02 4.40167048e+00 
258 380.78 1.47172412e+02 4.41517237e+00 
259 381.59 1.36048152e+02 4.08144455e+00 
260 382.40 1.16129583e+02 3.48388750e+00 
261 383.21 1.05262306e+02 3.15786917e+00 
262 384.01 1.12522906e+02 3.37568717e+00 
263 384.82 1.27864392e+02 3.83593176e+00 
264 385.63 1.35385219e+02 4.06155658e+00 
265 386.43 1.36993708e+02 4.10981124e+00 
266 387.24 1.38279071e+02 4.14837213e+00 
267 388.05 1.40388212e+02 4.21164637e+00 
268 388.85 1.48177919e+02 4.44533756e+00 
269 389.66 1.62022053e+02 4.86066158e+00 
270 390.47 1.74044320e+02 5.22132961e+00 
271 391.27 1.76727650e+02 5.30182951e+00 
272 392.08 1.60416063e+02 4.81248189e+00 
273 392.89 1.30926497e+02 3.92779490e+00 
274 393.69 1.20802182e+02 3.62406545e+00 
275 394.50 1.42894482e+02 4.28683446e+00 
276 395.31 1.63179636e+02 4.89538908e+00 
277 396.11 1.54753926e+02 4.64261779e+00 
278 396.92 1.44351225e+02 4.33053674e+00 
279 397.73 1.67400562e+02 5.02201685e+00 
280 398.53 2.08320330e+02 6.24960990e+00 
281 399.34 2.36121340e+02 7.08364019e+00 
282 400.15 2.49807154e+02 7.49421461e+00 
283 400.95 2.58974426e+02 7.76923279e+00 
284 401.76 2.66439489e+02 7.99318467e+00 
285 402.57 2.69078589e+02 8.07235766e+00 
286 403.37 2.67621005e+02 8.02863014e+00 
287 404.18 2.66242930e+02 7.98728789e+00 
288 404.98 2.65046634e+02 7.95139903e+00 
289 405.79 2.63782298e+02 7.91346894e+00 
290 406.60 2.64307190e+02 7.92921571e+00 
291 407.40 2.70267538e+02 8.10802613e+00 
292 408.21 2.80515353e+02 8.41546060e+00 
293 409.02 2.85597637e+02 8.56792911e+00 
294 409.82 2.82535054e+02 8.47605162e+00 
295 410.63 2.84434622e+02 8.53303865e+00 
296 411.44 2.96185262e+02 8.88555786e+00 
297 412.24 3.05414279e+02 9.16242837e+00 
298 413.05 3.07152760e+02 9.21458280e+00 
299 413.85 3.07409541e+02 9.22228622e+00 
300 414.66 3.08287965e+02 9.24863894e+00 
301 415.46 3.09721668e+02 9.29165003e+00 
302 416.27 3.10376004e+02 9.31128013e+00 
303 417.08 3.06968191e+02 9.20904574e+00 
304 417.88 3.01689071e+02 9.05067212e+00 
305 418.69 2.99445155e+02 8.98335466e+00 
306 419.49 3.00510489e+02 9.01531468e+00 
307 420.30 3.04822259e+02 9.14466776e+00 
308 421.11 3.09328748e+02 9.27986243e+00 
309 421.91 3.07973588e+02 9.23920765e+00 
310 422.72 3.02700632e+02 9.08101897e+00 
311 423.52 3.01609754e+02 9.04829263e+00 
312 424.33 3.04628387e+02 9.13885162e+00 
313 425.13 3.06658729e+02 9.19976186e+00 
314 425.94 3.06513493e+02 9.19540479e+00 
315 426.74 3.05459791e+02 9.16379374e+00 
316 427.55 3.04110288e+02 9.12330864e+00 
317 428.35 2.99908097e+02 8.99724291e+00 
318 429.16 2.88117918e+02 8.64353755e+00 
319 429.96 2.73680223e+02 8.21040670e+00 
320 430.77 2.76568655e+02 8.29705965e+00 
321 431.58 3.02646607e+02 9.07939820e+00 
322 432.38 3.32221236e+02 9.96663709e+00 
323 433.19 3.46657349e+02 1.03997205e+01 
324 433.99 3.52497755e+02 1.05749326e+01 
325 434.80 3.63925125e+02 1.09177538e+01 
326 435.60 3.81883186e+02 1.14564956e+01 
327 436.41 3.94998948e+02 1.18499685e+01 
328 437.21 3.95085517e+02 1.18525655e+01 
329 438.02 3.88361370e+02 1.16508411e+01 
330 438.82 3.87672387e+02 1.16301716e+01 
331 439.63 3.96938005e+02 1.19081401e+01 
332 440.43 4.12256431e+02 1.23676929e+01 
333 441.24 4.28533042e+02 1.28559913e+01 
334 442.04 4.43471717e+02 1.33041515e+01 
335 442.84 4.53949694e+02 1.36184908e+01 
336 443.65 4.59832350e+02 1.37949705e+01 
337 444.45 4.61789092e+02 1.38536728e+01 
338 445.26 4.60735641e+02 1.38220692e+01 
339 446.06 4.62818118e+02 1.38845435e+01 
340 446.87 4.72066575e+02 1.41619972e+01 
341 447.67 4.85199729e+02 1.45559919e+01 
342 448.48 4.95652872e+02 1.48695862e+01 
343 449.28 5.04977674e+02 1.51493302e+01 
344 450.09 5.15621214e+02 1.54686364e+01 
345 450.89 5.22585165e+02 1.56775549e+01 
346 451.69 5.19174604e+02 1.55752381e+01 
347 452.50 5.09235589e+02 1.52770677e+01 
348 453.30 5.03404626e+02 1.51021388e+01 
349 454.11 5.05447088e+02 1.51634126e+01 
350 454.91 5.13004389e+02 1.53901317e+01 
351 455.72 5.21565472e+02 1.56469641e+01 
352 456.52 5.28691203e+02 1.58607361e+01 
353 457.32 5.31981205e+02 1.59594361e+01 
354 458.13 5.30967428e+02 1.59290228e+01 
355 458.93 5.29767852e+02 1.58930355e+01 
356 459.74 5.32730183e+02 1.59819055e+01 
357 460.54 5.39836670e+02 1.61951001e+01 
358 461.34 5.48018079e+02 1.64405424e+01 
359 462.15 5.53796404e+02 1.66138921e+01 
360 462.95 5.54552924e+02 1.66365877e+01 
361 463.76 5.51119819e+02 1.65335946e+01 
362 464.56 5.47066188e+02 1.64119856e+01 
363 465.36 5.43980775e+02 1.63194233e+01 
364 466.17 5.42275499e+02 1.62682650e+01 
365 466.97 5.42764611e+02 1.62829383e+01 
366 467.77 5.45644260e+02 1.63693278e+01 
367 468.58 5.49376792e+02 1.64813037e+01 
368 469.38 5.50846844e+02 1.65254053e+01 
369 470.18 5.51551886e+02 1.65465566e+01 
370 470.99 5.56548816e+02 1.66964645e+01 
371 471.79 5.64728555e+02 1.69418566e+01 
372 472.59 5.72159146e+02 1.71647744e+01 
373 473.40 5.77075963e+02 1.73122789e+01 
374 474.20 5.80155414e+02 1.74046624e+01 
375 475.00 5.82091511e+02 1.74627453e+01 
376 475.81 5.83460762e+02 1.75038228e+01 
377 476.61 5.86448532e+02 1.75934559e+01 
378 477.41 5.92235537e+02 1.77670661e+01 
379 478.21 5.98349160e+02 1.79504748e+01 
380 479.02 6.02756392e+02 1.80826918e+01 
381 479.82 6.05335269e+02 1.81600581e+01 
382 480.62 6.08137818e+02 1.82441345e+01 
383 481.43 6.09749613e+02 1.82924884e+01 
384 482.23 6.08827670e+02 1.82648301e+01 
385 483.03 6.04337152e+02 1.81301145e+01 
386 483.84 5.94517229e+02 1.78355169e+01 
387 484.64 5.75963065e+02 1.72788919e+01 
388 485.44 5.52443563e+02 1.65733069e+01 
389 486.24 5.37421287e+02 1.61226386e+01 
390 487.05 5.38519073e+02 1.61555722e+01 
391 487.85 5.53278995e+02 1.65983699e+01 
392 488.65 5.71957567e+02 1.71587270e+01 
393 489.45 5.85397375e+02 1.75619213e+01 
394 490.26 5.90666619e+02 1.77199986e+01 
395 491.06 5.89060291e+02 1.76718087e+01 
396 491.86 5.84631292e+02 1.75389388e+01 
397 492.66 5.83419147e+02 1.75025744e+01 
398 493.46 5.88140482e+02 1.76442145e+01 
399 494.27 5.94669774e+02 1.78400932e+01 
400 495.07 5.98610807e+02 1.79583242e+01 
401 495.87 6.00606376e+02 1.80181913e+01 
402 496.67 5.99047709e+02 1.79714313e+01 
403 497.48 5.94926982e+02 1.78478094e+01 
404 498.28 5.90430206e+02 1.77129062e+01 
405 499.08 5.85046367e+02 1.75513910e+01 
406 499.88 5.79043659e+02 1.73713098e+01 
407 500.68 5.73662473e+02 1.72098742e+01 
408 501.48 5.70465750e+02 1.71139725e+01 
409 502.29 5.71686859e+02 1.71506058e+01 
410 503.09 5.75241930e+02 1.72572579e+01 
411 503.89 5.80002133e+02 1.74000640e+01 
412 504.69 5.85863307e+02 1.75758992e+01 
413 505.49 5.90857850e+02 1.77257355e+01 
414 506.29 5.92661691e+02 1.77798507e+01 
415 507.09 5.90543632e+02 1.77163089e+01 
416 507.90 5.87501584e+02 1.76250475e+01 
417 508.70 5.86322985e+02 1.75896896e+01 
418 509.50 5.86961995e+02 1.76088599e+01 
419 510.30 5.88350251e+02 1.76505075e+01 
420 511.10 5.87884420e+02 1.76365326e+01 
421 511.90 5.84601533e+02 1.75380460e+01 
422 512.70 5.78591433e+02 1.73577430e+01 
423 513.51 5.71468628e+02 1.71440588e+01 
424 514.31 5.65533846e+02 1.69660154e+01 
425 515.11 5.57372201e+02 1.67211660e+01 
426 515.91 5.43355786e+02 1.63006736e+01 
427 516.71 5.28289707e+02 1.58486912e+01 
428 517.51 5.19098698e+02 1.55729609e+01 
429 518.31 5.21414173e+02 1.56424252e+01 
430 519.11 5.33880428e+02 1.60164129e+01 
431 519.91 5.47473661e+02 1.64242098e+01 
432 520.71 5.57989593e+02 1.67396878e+01 
433 521.51 5.62791548e+02 1.68837464e+01 
434 522.32 5.64862556e+02 1.69458767e+01 
435 523.12 5.68428352e+02 1.70528506e+01 
436 523.92 5.72413838e+02 1.71724151e+01 
437 524.72 5.72870949e+02 1.71861285e+01 
438 525.52 5.65808832e+02 1.69742650e+01 
439 526.32 5.55606683e+02 1.66682005e+01 
440 527.12 5.52418471e+02 1.65725541e+01 
441 527.92 5.59062872e+02 1.67718862e+01 
442 528.72 5.71809494e+02 1.71542848e+01 
443 529.52 5.83590350e+02 1.75077105e+01 
444 530.32 5.89614276e+02 1.76884283e+01 
445 531.12 5.88589842e+02 1.76576952e+01 
446 531.92 5.83468515e+02 1.75040554e+01 
447 532.72 5.78216762e+02 1.73465028e+01 
448 533.52 5.77023271e+02 1.73106981e+01 
449 534.32 5.81019692e+02 1.74305908e+01 
450 535.12 5.85843249e+02 1.75752975e+01 
451 535.92 5.86829241e+02 1.76048772e+01 
452 536.72 5.85008842e+02 1.75502653e+01 
453 537.52 5.82043603e+02 1.74613081e+01 
454 538.32 5.78082933e+02 1.73424880e+01 
455 539.12 5.73093840e+02 1.71928152e+01 
456 539.92 5.68265597e+02 1.70479679e+01 
457 540.72 5.66317849e+02 1.69895355e+01 
458 541.52 5.68112360e+02 1.70433708e+01 
459 542.32 5.72915992e+02 1.71874798e+01 
460 543.12 5.78050160e+02 1.73415048e+01 
461 543.92 5.81933881e+02 1.74580164e+01 
462 544.72 5.84377396e+02 1.75313219e+01 
463 545.52 5.84349742e+02 1.75304923e+01 
464 546.31 5.81770305e+02 1.74531091e+01 
465 547.12 5.78359739e+02 1.73507922e+01 
466 547.91 5.76303479e+02 1.72891044e+01 
467 548.71 5.75567476e+02 1.72670243e+01 
468 549.51 5.75383122e+02 1.72614937e+01 
469 550.31 5.74489071e+02 1.72346721e+01 
470 551.11 5.73417507e+02 1.72025252e+01 
471 551.91 5.72840516e+02 1.71852155e+01 
472 552.71 5.72804180e+02 1.71841254e+01 
