% C0 (TOA Count Rate, /ms) for 4STAR VIS spectrometer (1044 channels) derived from 20160113starsun_wFORJcorr.mat and recorded on 2016-01-29 20:28:42.
% Data outside 2.0x the STD of 501 nm Langley residuals were screened out.
Pix Wavelength C0 C0err
0 173.18 -1.00000000e+00 -1.00000000e+00 
1 173.97 2.22798297e+13 6.68394891e+11 
2 174.77 1.23285484e+13 3.69856451e+11 
3 175.56 7.09660416e+13 2.12898125e+12 
4 176.36 5.69335251e+14 1.70800575e+13 
5 177.15 9.26311494e+14 2.77893448e+13 
6 177.94 1.20906632e+15 3.62719896e+13 
7 178.74 1.68187321e+15 5.04561962e+13 
8 179.53 2.61226033e+15 7.83678100e+13 
9 180.33 3.53822655e+15 1.06146796e+14 
10 181.12 4.03199358e+15 1.20959808e+14 
11 181.92 5.57152257e+15 1.67145677e+14 
12 182.71 6.86849135e+15 2.06054741e+14 
13 183.51 9.93820759e+15 2.98146228e+14 
14 184.30 1.68958181e+16 5.06874543e+14 
15 185.10 2.27720199e+16 6.83160596e+14 
16 185.89 2.90032616e+16 8.70097847e+14 
17 186.69 4.69172340e+16 1.40751702e+15 
18 187.49 4.31314262e+16 1.29394279e+15 
19 188.28 5.39859082e+16 1.61957724e+15 
20 189.08 7.88457861e+16 2.36537358e+15 
21 189.88 1.15800436e+17 3.47401309e+15 
22 190.67 1.82571989e+17 5.47715967e+15 
23 191.47 2.14632150e+17 6.43896450e+15 
24 192.27 3.73349516e+17 1.12004855e+16 
25 193.07 4.87546880e+17 1.46264064e+16 
26 193.86 5.07090740e+17 1.52127222e+16 
27 194.66 4.62819161e+17 1.38845748e+16 
28 195.46 4.81997746e+17 1.44599324e+16 
29 196.26 5.86079652e+17 1.75823896e+16 
30 197.05 5.76271855e+17 1.72881557e+16 
31 197.85 3.67755879e+17 1.10326764e+16 
32 198.65 2.81903735e+17 8.45711204e+15 
33 199.45 1.61295781e+17 4.83887342e+15 
34 200.25 8.70287843e+16 2.61086353e+15 
35 201.05 5.05413279e+16 1.51623984e+15 
36 201.85 2.91825356e+16 8.75476069e+14 
37 202.64 1.93491240e+16 5.80473719e+14 
38 203.44 8.18366339e+15 2.45509902e+14 
39 204.24 4.23158653e+15 1.26947596e+14 
40 205.04 1.95123561e+15 5.85370684e+13 
41 205.84 9.46040454e+14 2.83812136e+13 
42 206.64 4.56387829e+14 1.36916349e+13 
43 207.44 2.26710381e+14 6.80131144e+12 
44 208.24 1.05991096e+14 3.17973289e+12 
45 209.04 5.02614410e+13 1.50784323e+12 
46 209.84 2.45703254e+13 7.37109763e+11 
47 210.64 1.14026132e+13 3.42078395e+11 
48 211.44 5.47841434e+12 1.64352430e+11 
49 212.24 2.77259270e+12 8.31777809e+10 
50 213.05 1.27299963e+12 3.81899890e+10 
51 213.85 5.98659213e+11 1.79597764e+10 
52 214.65 3.04946895e+11 9.14840684e+09 
53 215.45 1.38950717e+11 4.16852150e+09 
54 216.25 6.85644804e+10 2.05693441e+09 
55 217.05 3.36945547e+10 1.01083664e+09 
56 217.85 1.60885157e+10 4.82655470e+08 
57 218.65 7.29730012e+09 2.18919004e+08 
58 219.46 3.76877712e+09 1.13063314e+08 
59 220.26 1.77784641e+09 5.33353923e+07 
60 221.06 8.43956335e+08 2.53186901e+07 
61 221.86 4.25448411e+08 1.27634523e+07 
62 222.66 2.04533770e+08 6.13601309e+06 
63 223.47 9.56795633e+07 2.87038690e+06 
64 224.27 4.76123829e+07 1.42837149e+06 
65 225.07 2.24344460e+07 6.73033379e+05 
66 225.87 1.06662336e+07 3.19987008e+05 
67 226.68 5.26236632e+06 1.57870990e+05 
68 227.48 2.54311116e+06 7.62933349e+04 
69 228.28 1.36224506e+06 4.08673517e+04 
70 229.09 7.63639321e+05 2.29091796e+04 
71 229.89 6.02208874e+05 1.80662662e+04 
72 230.69 5.38196687e+05 1.61459006e+04 
73 231.49 8.00983229e+05 2.40294969e+04 
74 232.30 1.42297262e+06 4.26891785e+04 
75 233.10 2.91020067e+06 8.73060201e+04 
76 233.91 6.60577334e+06 1.98173200e+05 
77 234.71 1.51963803e+07 4.55891409e+05 
78 235.51 3.76901466e+07 1.13070440e+06 
79 236.32 8.28797330e+07 2.48639199e+06 
80 237.12 2.14802233e+08 6.44406699e+06 
81 237.92 4.97720551e+08 1.49316165e+07 
82 238.73 1.15190249e+09 3.45570747e+07 
83 239.53 2.86037621e+09 8.58112862e+07 
84 240.34 7.10885755e+09 2.13265727e+08 
85 241.14 1.56743419e+10 4.70230256e+08 
86 241.94 3.68111472e+10 1.10433442e+09 
87 242.75 8.04743198e+10 2.41422960e+09 
88 243.55 1.63917666e+11 4.91752999e+09 
89 244.36 3.45890156e+11 1.03767047e+10 
90 245.16 7.27556627e+11 2.18266988e+10 
91 245.97 1.34198951e+12 4.02596852e+10 
92 246.77 2.45402141e+12 7.36206423e+10 
93 247.58 4.45285247e+12 1.33585574e+11 
94 248.38 6.84180129e+12 2.05254039e+11 
95 249.19 1.11924129e+13 3.35772387e+11 
96 249.99 1.76923698e+13 5.30771093e+11 
97 250.80 2.32102254e+13 6.96306761e+11 
98 251.60 3.04845075e+13 9.14535224e+11 
99 252.41 4.05022955e+13 1.21506886e+12 
100 253.21 4.55384832e+13 1.36615450e+12 
101 254.02 5.03240320e+13 1.50972096e+12 
102 254.83 6.04332868e+13 1.81299860e+12 
103 255.63 5.48239229e+13 1.64471769e+12 
104 256.44 4.70021916e+13 1.41006575e+12 
105 257.24 4.02871553e+13 1.20861466e+12 
106 258.05 3.40353563e+13 1.02106069e+12 
107 258.85 2.49202646e+13 7.47607937e+11 
108 259.66 1.71880491e+13 5.15641472e+11 
109 260.46 1.06905911e+13 3.20717732e+11 
110 261.27 6.41740796e+12 1.92522239e+11 
111 262.08 3.86537298e+12 1.15961189e+11 
112 262.88 2.05528021e+12 6.16584062e+10 
113 263.69 9.43645074e+11 2.83093522e+10 
114 264.50 5.48338689e+11 1.64501607e+10 
115 265.30 2.57515788e+11 7.72547364e+09 
116 266.11 1.21405462e+11 3.64216387e+09 
117 266.91 5.24928052e+10 1.57478416e+09 
118 267.72 2.22772887e+10 6.68318660e+08 
119 268.53 8.95080153e+09 2.68524046e+08 
120 269.33 3.41212438e+09 1.02363731e+08 
121 270.14 1.51922243e+09 4.55766729e+07 
122 270.95 6.20292085e+08 1.86087626e+07 
123 271.75 2.63829597e+08 7.91488791e+06 
124 272.56 1.00567237e+08 3.01701712e+06 
125 273.37 3.65197033e+07 1.09559110e+06 
126 274.17 1.35414177e+07 4.06242530e+05 
127 274.98 5.59186045e+06 1.67755814e+05 
128 275.79 2.23013378e+06 6.69040134e+04 
129 276.59 9.86575936e+05 2.95972781e+04 
130 277.40 4.25817367e+05 1.27745210e+04 
131 278.21 1.86541510e+05 5.59624531e+03 
132 279.01 7.90561261e+04 2.37168378e+03 
133 279.82 3.64799445e+04 1.09439833e+03 
134 280.63 1.55584081e+04 4.66752242e+02 
135 281.44 6.61923822e+03 1.98577146e+02 
136 282.24 3.39371773e+03 1.01811532e+02 
137 283.05 1.69449061e+03 5.08347184e+01 
138 283.86 8.25077604e+02 2.47523281e+01 
139 284.66 5.25076679e+02 1.57523004e+01 
140 285.47 2.71313728e+02 8.13941185e+00 
141 286.28 1.56891624e+02 4.70674873e+00 
142 287.09 1.01005835e+02 3.03017506e+00 
143 287.89 6.04577319e+01 1.81373196e+00 
144 288.70 3.83552934e+01 1.15065880e+00 
145 289.51 2.42951969e+01 7.28855908e-01 
146 290.32 1.80980364e+01 5.42941091e-01 
147 291.12 1.19498915e+01 3.58496744e-01 
148 291.93 8.92527218e+00 2.67758165e-01 
149 292.74 7.19649721e+00 2.15894916e-01 
150 293.55 5.20725721e+00 1.56217716e-01 
151 294.35 3.65050241e+00 1.09515072e-01 
152 295.16 3.20184572e+00 9.60553715e-02 
153 295.97 2.56767801e+00 7.70303403e-02 
154 296.78 2.05116853e+00 6.15350558e-02 
155 297.58 1.82101057e+00 5.46303170e-02 
156 298.39 1.52780043e+00 4.58340130e-02 
157 299.20 1.28794292e+00 3.86382877e-02 
158 300.01 1.14550848e+00 3.43652545e-02 
159 300.81 1.07114368e+00 3.21343104e-02 
160 301.62 8.71412240e-01 2.61423672e-02 
161 302.43 8.85379265e-01 2.65613780e-02 
162 303.24 7.96086112e-01 2.38825834e-02 
163 304.05 7.30135190e-01 2.19040557e-02 
164 304.85 6.77767562e-01 2.03330268e-02 
165 305.66 6.45899302e-01 1.93769791e-02 
166 306.47 6.29381399e-01 1.88814420e-02 
167 307.28 6.25632175e-01 1.87689653e-02 
168 308.08 5.87053140e-01 1.76115942e-02 
169 308.89 5.56141706e-01 1.66842512e-02 
170 309.70 5.53672412e-01 1.66101723e-02 
171 310.51 5.40002793e-01 1.62000838e-02 
172 311.32 5.00951329e-01 1.50285399e-02 
173 312.12 4.89398110e-01 1.46819433e-02 
174 312.93 5.11453021e-01 1.53435906e-02 
175 313.74 4.96276250e-01 1.48882875e-02 
176 314.55 4.99680448e-01 1.49904134e-02 
177 315.36 4.98652649e-01 1.49595795e-02 
178 316.16 4.84940978e-01 1.45482293e-02 
179 316.97 4.84323892e-01 1.45297168e-02 
180 317.78 5.17281721e-01 1.55184516e-02 
181 318.59 5.01748011e-01 1.50524403e-02 
182 319.39 5.16900335e-01 1.55070101e-02 
183 320.20 5.28936828e-01 1.58681048e-02 
184 321.01 5.56885411e-01 1.67065623e-02 
185 321.82 5.09236238e-01 1.52770872e-02 
186 322.63 5.56835095e-01 1.67050529e-02 
187 323.43 5.39299492e-01 1.61789848e-02 
188 324.24 5.49234721e-01 1.64770416e-02 
189 325.05 5.60892513e-01 1.68267754e-02 
190 325.86 5.90772479e-01 1.77231744e-02 
191 326.67 6.29443674e-01 1.88833102e-02 
192 327.48 6.34430077e-01 1.90329023e-02 
193 328.28 6.34714064e-01 1.90414219e-02 
194 329.09 6.52096242e-01 1.95628873e-02 
195 329.90 6.83507072e-01 2.05052122e-02 
196 330.71 7.29960684e-01 2.18988205e-02 
197 331.51 7.30125983e-01 2.19037795e-02 
198 332.32 8.44243437e-01 2.53273031e-02 
199 333.13 9.96718653e-01 2.99015596e-02 
200 333.94 1.23699755e+00 3.71099264e-02 
201 334.75 1.71552196e+00 5.14656589e-02 
202 335.56 2.41089541e+00 7.23268624e-02 
203 336.36 3.45002179e+00 1.03500654e-01 
204 337.17 5.27617024e+00 1.58285107e-01 
205 337.98 8.11169429e+00 2.43350829e-01 
206 338.79 1.14813860e+01 3.44441580e-01 
207 339.59 1.55401529e+01 4.66204586e-01 
208 340.40 1.94788754e+01 5.84366262e-01 
209 341.21 2.25643199e+01 6.76929598e-01 
210 342.02 2.63327759e+01 7.89983278e-01 
211 342.83 2.98452445e+01 8.95357334e-01 
212 343.64 3.07404626e+01 9.22213878e-01 
213 344.44 3.20920439e+01 9.62761316e-01 
214 345.25 3.60492817e+01 1.08147845e+00 
215 346.06 3.97553792e+01 1.19266137e+00 
216 346.87 4.22862631e+01 1.26858789e+00 
217 347.67 4.42103007e+01 1.32630902e+00 
218 348.48 4.57114446e+01 1.37134334e+00 
219 349.29 4.86150471e+01 1.45845141e+00 
220 350.10 5.35042815e+01 1.60512845e+00 
221 350.91 5.71192468e+01 1.71357740e+00 
222 351.71 5.75074916e+01 1.72522475e+00 
223 352.52 5.86369839e+01 1.75910952e+00 
224 353.33 6.38880288e+01 1.91664086e+00 
225 354.14 7.07666263e+01 2.12299879e+00 
226 354.94 7.42329093e+01 2.22698728e+00 
227 355.75 7.33760918e+01 2.20128275e+00 
228 356.56 6.93392267e+01 2.08017680e+00 
229 357.37 6.51505124e+01 1.95451537e+00 
230 358.18 6.40048429e+01 1.92014529e+00 
231 358.98 7.14589454e+01 2.14376836e+00 
232 359.79 8.30062825e+01 2.49018848e+00 
233 360.60 8.53803631e+01 2.56141089e+00 
234 361.41 8.39377374e+01 2.51813212e+00 
235 362.21 8.82960120e+01 2.64888036e+00 
236 363.02 9.38379019e+01 2.81513706e+00 
237 363.83 9.72035547e+01 2.91610664e+00 
238 364.64 1.01718491e+02 3.05155473e+00 
239 365.44 1.10917894e+02 3.32753682e+00 
240 366.25 1.19442398e+02 3.58327193e+00 
241 367.06 1.21076456e+02 3.63229367e+00 
242 367.87 1.19299728e+02 3.57899184e+00 
243 368.67 1.20698932e+02 3.62096796e+00 
244 369.48 1.26021802e+02 3.78065406e+00 
245 370.29 1.27557070e+02 3.82671209e+00 
246 371.10 1.26482029e+02 3.79446087e+00 
247 371.90 1.23523513e+02 3.70570540e+00 
248 372.71 1.17183611e+02 3.51550832e+00 
249 373.52 1.10573428e+02 3.31720283e+00 
250 374.33 1.09485351e+02 3.28456054e+00 
251 375.13 1.16883066e+02 3.50649199e+00 
252 375.94 1.27513344e+02 3.82540032e+00 
253 376.75 1.38844596e+02 4.16533789e+00 
254 377.55 1.52209625e+02 4.56628875e+00 
255 378.36 1.56945425e+02 4.70836276e+00 
256 379.17 1.49601813e+02 4.48805439e+00 
257 379.98 1.45769436e+02 4.37308309e+00 
258 380.78 1.45608955e+02 4.36826865e+00 
259 381.59 1.34059294e+02 4.02177882e+00 
260 382.40 1.14427542e+02 3.43282625e+00 
261 383.21 1.04585880e+02 3.13757640e+00 
262 384.01 1.12393457e+02 3.37180371e+00 
263 384.82 1.27576136e+02 3.82728407e+00 
264 385.63 1.34739978e+02 4.04219933e+00 
265 386.43 1.36099514e+02 4.08298542e+00 
266 387.24 1.37043274e+02 4.11129823e+00 
267 388.05 1.39373581e+02 4.18120743e+00 
268 388.85 1.47686161e+02 4.43058482e+00 
269 389.66 1.61595736e+02 4.84787208e+00 
270 390.47 1.73576150e+02 5.20728450e+00 
271 391.27 1.75436694e+02 5.26310083e+00 
272 392.08 1.58240141e+02 4.74720424e+00 
273 392.89 1.29509040e+02 3.88527119e+00 
274 393.69 1.20857548e+02 3.62572645e+00 
275 394.50 1.42692912e+02 4.28078736e+00 
276 395.31 1.61563395e+02 4.84690184e+00 
277 396.11 1.53154640e+02 4.59463920e+00 
278 396.92 1.44670616e+02 4.34011848e+00 
279 397.73 1.68375627e+02 5.05126881e+00 
280 398.53 2.08286187e+02 6.24858560e+00 
281 399.34 2.35149577e+02 7.05448731e+00 
282 400.15 2.48582605e+02 7.45747814e+00 
283 400.95 2.57813530e+02 7.73440591e+00 
284 401.76 2.65309004e+02 7.95927011e+00 
285 402.57 2.67992970e+02 8.03978911e+00 
286 403.37 2.66805737e+02 8.00417210e+00 
287 404.18 2.65548339e+02 7.96645018e+00 
288 404.98 2.64305549e+02 7.92916646e+00 
289 405.79 2.62969837e+02 7.88909511e+00 
290 406.60 2.63692467e+02 7.91077400e+00 
291 407.40 2.69704628e+02 8.09113884e+00 
292 408.21 2.79815180e+02 8.39445541e+00 
293 409.02 2.84401267e+02 8.53203802e+00 
294 409.82 2.81779951e+02 8.45339854e+00 
295 410.63 2.84310660e+02 8.52931981e+00 
296 411.44 2.95937689e+02 8.87813067e+00 
297 412.24 3.04794935e+02 9.14384804e+00 
298 413.05 3.06350004e+02 9.19050012e+00 
299 413.85 3.06327425e+02 9.18982274e+00 
300 414.66 3.07212595e+02 9.21637786e+00 
301 415.46 3.08852553e+02 9.26557658e+00 
302 416.27 3.09624824e+02 9.28874472e+00 
303 417.08 3.06784704e+02 9.20354112e+00 
304 417.88 3.02023737e+02 9.06071212e+00 
305 418.69 2.99852426e+02 8.99557278e+00 
306 419.49 3.00814954e+02 9.02444861e+00 
307 420.30 3.04749227e+02 9.14247681e+00 
308 421.11 3.08469775e+02 9.25409326e+00 
309 421.91 3.06997735e+02 9.20993206e+00 
310 422.72 3.02403678e+02 9.07211035e+00 
311 423.52 3.01851637e+02 9.05554911e+00 
312 424.33 3.05070892e+02 9.15212676e+00 
313 425.13 3.07179773e+02 9.21539320e+00 
314 425.94 3.06826311e+02 9.20478932e+00 
315 426.74 3.05630216e+02 9.16890649e+00 
316 427.55 3.04261846e+02 9.12785539e+00 
317 428.35 2.99652370e+02 8.98957109e+00 
318 429.16 2.87654927e+02 8.62964782e+00 
319 429.96 2.74195554e+02 8.22586663e+00 
320 430.77 2.78213759e+02 8.34641276e+00 
321 431.58 3.04021101e+02 9.12063304e+00 
322 432.38 3.32946059e+02 9.98838177e+00 
323 433.19 3.47370530e+02 1.04211159e+01 
324 433.99 3.53677769e+02 1.06103331e+01 
325 434.80 3.65259284e+02 1.09577785e+01 
326 435.60 3.82597992e+02 1.14779398e+01 
327 436.41 3.94794817e+02 1.18438445e+01 
328 437.21 3.94505436e+02 1.18351631e+01 
329 438.02 3.88198522e+02 1.16459557e+01 
330 438.82 3.87885099e+02 1.16365530e+01 
331 439.63 3.97160245e+02 1.19148074e+01 
332 440.43 4.12573928e+02 1.23772178e+01 
333 441.24 4.28787786e+02 1.28636336e+01 
334 442.04 4.43414797e+02 1.33024439e+01 
335 442.84 4.53696785e+02 1.36109036e+01 
336 443.65 4.59203397e+02 1.37761019e+01 
337 444.45 4.60615220e+02 1.38184566e+01 
338 445.26 4.59471919e+02 1.37841576e+01 
339 446.06 4.61898666e+02 1.38569600e+01 
340 446.87 4.70998307e+02 1.41299492e+01 
341 447.67 4.83798855e+02 1.45139656e+01 
342 448.48 4.94221110e+02 1.48266333e+01 
343 449.28 5.03686654e+02 1.51105996e+01 
344 450.09 5.13796046e+02 1.54138814e+01 
345 450.89 5.19814662e+02 1.55944399e+01 
346 451.69 5.15870658e+02 1.54761197e+01 
347 452.50 5.05897161e+02 1.51769148e+01 
348 453.30 5.00057692e+02 1.50017308e+01 
349 454.11 5.01779462e+02 1.50533839e+01 
350 454.91 5.09310803e+02 1.52793241e+01 
351 455.72 5.17979337e+02 1.55393801e+01 
352 456.52 5.25281146e+02 1.57584344e+01 
353 457.32 5.28859637e+02 1.58657891e+01 
354 458.13 5.28131295e+02 1.58439388e+01 
355 458.93 5.26978667e+02 1.58093600e+01 
356 459.74 5.29567791e+02 1.58870337e+01 
357 460.54 5.35984153e+02 1.60795246e+01 
358 461.34 5.43250634e+02 1.62975190e+01 
359 462.15 5.48354148e+02 1.64506244e+01 
360 462.95 5.48852388e+02 1.64655716e+01 
361 463.76 5.45782640e+02 1.63734792e+01 
362 464.56 5.42430462e+02 1.62729139e+01 
363 465.36 5.40110442e+02 1.62033133e+01 
364 466.17 5.39160101e+02 1.61748030e+01 
365 466.97 5.39984620e+02 1.61995386e+01 
366 467.77 5.42419114e+02 1.62725734e+01 
367 468.58 5.45243379e+02 1.63573014e+01 
368 469.38 5.45759371e+02 1.63727811e+01 
369 470.18 5.46019341e+02 1.63805802e+01 
370 470.99 5.50601535e+02 1.65180461e+01 
371 471.79 5.58382840e+02 1.67514852e+01 
372 472.59 5.66274647e+02 1.69882394e+01 
373 473.40 5.72334841e+02 1.71700452e+01 
374 474.20 5.76430521e+02 1.72929156e+01 
375 475.00 5.79066991e+02 1.73720097e+01 
376 475.81 5.81005221e+02 1.74301566e+01 
377 476.61 5.83959487e+02 1.75187846e+01 
378 477.41 5.89160649e+02 1.76748195e+01 
379 478.21 5.94378959e+02 1.78313688e+01 
380 479.02 5.98020787e+02 1.79406236e+01 
381 479.82 5.99942990e+02 1.79982897e+01 
382 480.62 6.02155712e+02 1.80646714e+01 
383 481.43 6.03521934e+02 1.81056580e+01 
384 482.23 6.02815607e+02 1.80844682e+01 
385 483.03 5.98983869e+02 1.79695161e+01 
386 483.84 5.89755086e+02 1.76926526e+01 
387 484.64 5.71718106e+02 1.71515432e+01 
388 485.44 5.49348466e+02 1.64804540e+01 
389 486.24 5.35391944e+02 1.60617583e+01 
390 487.05 5.36279585e+02 1.60883876e+01 
391 487.85 5.50173874e+02 1.65052162e+01 
392 488.65 5.68075866e+02 1.70422760e+01 
393 489.45 5.80546694e+02 1.74164008e+01 
394 490.26 5.85007023e+02 1.75502107e+01 
395 491.06 5.83529632e+02 1.75058890e+01 
396 491.86 5.80055913e+02 1.74016774e+01 
397 492.66 5.79713836e+02 1.73914151e+01 
398 493.46 5.85230903e+02 1.75569271e+01 
399 494.27 5.92268689e+02 1.77680607e+01 
400 495.07 5.96481089e+02 1.78944327e+01 
401 495.87 5.98129136e+02 1.79438741e+01 
402 496.67 5.95476477e+02 1.78642943e+01 
403 497.48 5.90594364e+02 1.77178309e+01 
404 498.28 5.85484019e+02 1.75645206e+01 
405 499.08 5.79575570e+02 1.73872671e+01 
406 499.88 5.73327945e+02 1.71998384e+01 
407 500.68 5.68378332e+02 1.70513500e+01 
408 501.48 5.65931878e+02 1.69779564e+01 
409 502.29 5.67902313e+02 1.70370694e+01 
410 503.09 5.72337949e+02 1.71701385e+01 
411 503.89 5.78017646e+02 1.73405294e+01 
412 504.69 5.84211195e+02 1.75263358e+01 
413 505.49 5.88802206e+02 1.76640662e+01 
414 506.29 5.89840514e+02 1.76952154e+01 
415 507.09 5.87047776e+02 1.76114333e+01 
416 507.90 5.83293402e+02 1.74988021e+01 
417 508.70 5.81461755e+02 1.74438527e+01 
418 509.50 5.81793849e+02 1.74538155e+01 
419 510.30 5.83139328e+02 1.74941798e+01 
420 511.10 5.82467838e+02 1.74740352e+01 
421 511.90 5.79308226e+02 1.73792468e+01 
422 512.70 5.73796102e+02 1.72138830e+01 
423 513.51 5.67444899e+02 1.70233470e+01 
424 514.31 5.62061640e+02 1.68618492e+01 
425 515.11 5.54036568e+02 1.66210970e+01 
426 515.91 5.40502803e+02 1.62150841e+01 
427 516.71 5.26119455e+02 1.57835837e+01 
428 517.51 5.16947846e+02 1.55084354e+01 
429 518.31 5.18711557e+02 1.55613467e+01 
430 519.11 5.30169313e+02 1.59050794e+01 
431 519.91 5.42823070e+02 1.62846921e+01 
432 520.71 5.52570548e+02 1.65771165e+01 
433 521.51 5.57066288e+02 1.67119886e+01 
434 522.32 5.59590071e+02 1.67877021e+01 
435 523.12 5.63733431e+02 1.69120029e+01 
436 523.92 5.68157053e+02 1.70447116e+01 
437 524.72 5.68762370e+02 1.70628711e+01 
438 525.52 5.62197824e+02 1.68659347e+01 
439 526.32 5.52819955e+02 1.65845986e+01 
440 527.12 5.50088189e+02 1.65026457e+01 
441 527.92 5.56216731e+02 1.66865019e+01 
442 528.72 5.67841951e+02 1.70352585e+01 
443 529.52 5.78402865e+02 1.73520859e+01 
444 530.32 5.83250222e+02 1.74975067e+01 
445 531.12 5.81425916e+02 1.74427775e+01 
446 531.92 5.76341899e+02 1.72902570e+01 
447 532.72 5.71674740e+02 1.71502422e+01 
448 533.52 5.70920848e+02 1.71276254e+01 
449 534.32 5.75022364e+02 1.72506709e+01 
450 535.12 5.79917507e+02 1.73975252e+01 
451 535.92 5.81499292e+02 1.74449788e+01 
452 536.72 5.80684501e+02 1.74205350e+01 
453 537.52 5.78414000e+02 1.73524200e+01 
454 538.32 5.74708795e+02 1.72412638e+01 
455 539.12 5.69732994e+02 1.70919898e+01 
456 539.92 5.64873200e+02 1.69461960e+01 
457 540.72 5.62536698e+02 1.68761010e+01 
458 541.52 5.63506970e+02 1.69052091e+01 
459 542.32 5.67439182e+02 1.70231754e+01 
460 543.12 5.71695969e+02 1.71508791e+01 
461 543.92 5.74875257e+02 1.72462577e+01 
462 544.72 5.77000624e+02 1.73100187e+01 
463 545.52 5.77333938e+02 1.73200181e+01 
464 546.31 5.75461718e+02 1.72638515e+01 
465 547.12 5.72790925e+02 1.71837277e+01 
466 547.91 5.71233529e+02 1.71370059e+01 
467 548.71 5.70841619e+02 1.71252486e+01 
468 549.51 5.71266718e+02 1.71380015e+01 
469 550.31 5.71061527e+02 1.71318458e+01 
470 551.11 5.70283671e+02 1.71085101e+01 
471 551.91 5.69457454e+02 1.70837236e+01 
