% C0 (TOA Count Rate, /ms) for 4STAR VIS spectrometer (1044 channels) derived from 4STAR_20160831starsun.mat and recorded on 2017-06-14 23:44:18.
% Using the MLO from September 2016 high altitude AOD for stratospheric AOD component, calculating the c0 from the AOD at low airmass. 
Pix Wavelength C0 C0err
0 173.18 0.00000000e+00 0.00000000e+00 
1 173.98 -1.00000000e+00 0.00000000e+00 
2 174.77 -1.00000000e+00 0.00000000e+00 
3 175.56 -1.00000000e+00 0.00000000e+00 
4 176.36 -1.00000000e+00 0.00000000e+00 
5 177.15 -1.00000000e+00 0.00000000e+00 
6 177.94 -1.00000000e+00 0.00000000e+00 
7 178.74 -1.00000000e+00 0.00000000e+00 
8 179.53 -1.00000000e+00 0.00000000e+00 
9 180.33 -1.00000000e+00 0.00000000e+00 
10 181.12 -1.00000000e+00 0.00000000e+00 
11 181.92 -1.00000000e+00 0.00000000e+00 
12 182.71 -1.00000000e+00 0.00000000e+00 
13 183.51 -1.00000000e+00 0.00000000e+00 
14 184.30 -1.00000000e+00 0.00000000e+00 
15 185.10 -1.00000000e+00 0.00000000e+00 
16 185.89 -1.00000000e+00 0.00000000e+00 
17 186.69 -1.00000000e+00 0.00000000e+00 
18 187.49 -1.00000000e+00 0.00000000e+00 
19 188.28 -1.00000000e+00 0.00000000e+00 
20 189.08 -1.00000000e+00 0.00000000e+00 
21 189.88 -1.00000000e+00 0.00000000e+00 
22 190.67 -1.00000000e+00 0.00000000e+00 
23 191.47 -1.00000000e+00 0.00000000e+00 
24 192.27 -1.00000000e+00 0.00000000e+00 
25 193.07 -1.00000000e+00 0.00000000e+00 
26 193.86 -1.00000000e+00 0.00000000e+00 
27 194.66 -1.00000000e+00 0.00000000e+00 
28 195.46 -1.00000000e+00 0.00000000e+00 
29 196.26 -1.00000000e+00 0.00000000e+00 
30 197.05 -1.00000000e+00 0.00000000e+00 
31 197.85 -1.00000000e+00 0.00000000e+00 
32 198.65 -1.00000000e+00 0.00000000e+00 
33 199.45 -1.00000000e+00 0.00000000e+00 
34 200.25 -1.00000000e+00 0.00000000e+00 
35 201.05 -1.00000000e+00 0.00000000e+00 
36 201.85 -1.00000000e+00 0.00000000e+00 
37 202.65 -1.00000000e+00 0.00000000e+00 
38 203.44 -1.00000000e+00 0.00000000e+00 
39 204.24 -1.00000000e+00 0.00000000e+00 
40 205.04 -1.00000000e+00 0.00000000e+00 
41 205.84 -1.00000000e+00 0.00000000e+00 
42 206.64 -1.00000000e+00 0.00000000e+00 
43 207.44 -1.00000000e+00 0.00000000e+00 
44 208.24 -1.00000000e+00 0.00000000e+00 
45 209.04 -1.00000000e+00 0.00000000e+00 
46 209.84 -1.00000000e+00 0.00000000e+00 
47 210.64 -1.00000000e+00 0.00000000e+00 
48 211.44 -1.00000000e+00 0.00000000e+00 
49 212.24 -1.00000000e+00 0.00000000e+00 
50 213.04 -1.00000000e+00 0.00000000e+00 
51 213.85 -1.00000000e+00 0.00000000e+00 
52 214.65 -1.00000000e+00 0.00000000e+00 
53 215.45 -1.00000000e+00 0.00000000e+00 
54 216.25 -1.00000000e+00 0.00000000e+00 
55 217.05 -1.00000000e+00 0.00000000e+00 
56 217.85 -1.00000000e+00 0.00000000e+00 
57 218.65 -1.00000000e+00 0.00000000e+00 
58 219.46 -1.00000000e+00 0.00000000e+00 
59 220.26 -1.00000000e+00 0.00000000e+00 
60 221.06 -1.00000000e+00 0.00000000e+00 
61 221.86 -1.00000000e+00 0.00000000e+00 
62 222.66 -1.00000000e+00 0.00000000e+00 
63 223.47 -1.00000000e+00 0.00000000e+00 
64 224.27 -1.00000000e+00 0.00000000e+00 
65 225.07 -1.00000000e+00 -1.00000000e+00 
66 225.87 -1.00000000e+00 -1.00000000e+00 
67 226.68 1.87060821e+35 -1.00000000e+00 
68 227.48 5.67208776e+33 -1.00000000e+00 
69 228.28 2.21053479e+32 -1.00000000e+00 
70 229.08 1.60156957e+31 -1.00000000e+00 
71 229.89 3.37336273e+30 -1.00000000e+00 
72 230.69 3.18547571e+30 -1.00000000e+00 
73 231.49 1.51959860e+31 -1.00000000e+00 
74 232.30 2.62758073e+32 -1.00000000e+00 
75 233.10 1.02109757e+34 -1.00000000e+00 
76 233.90 5.40456337e+35 -1.00000000e+00 
77 234.71 -1.00000000e+00 -1.00000000e+00 
78 235.51 -1.00000000e+00 0.00000000e+00 
79 236.32 -1.00000000e+00 0.00000000e+00 
80 237.12 -1.00000000e+00 0.00000000e+00 
81 237.92 -1.00000000e+00 0.00000000e+00 
82 238.73 -1.00000000e+00 0.00000000e+00 
83 239.53 -1.00000000e+00 0.00000000e+00 
84 240.34 -1.00000000e+00 0.00000000e+00 
85 241.14 -1.00000000e+00 0.00000000e+00 
86 241.94 -1.00000000e+00 0.00000000e+00 
87 242.75 -1.00000000e+00 0.00000000e+00 
88 243.55 -1.00000000e+00 0.00000000e+00 
89 244.36 -1.00000000e+00 0.00000000e+00 
90 245.16 -1.00000000e+00 0.00000000e+00 
91 245.97 -1.00000000e+00 0.00000000e+00 
92 246.77 -1.00000000e+00 0.00000000e+00 
93 247.58 -1.00000000e+00 0.00000000e+00 
94 248.38 -1.00000000e+00 0.00000000e+00 
95 249.19 -1.00000000e+00 0.00000000e+00 
96 249.99 -1.00000000e+00 0.00000000e+00 
97 250.80 -1.00000000e+00 0.00000000e+00 
98 251.60 -1.00000000e+00 0.00000000e+00 
99 252.41 -1.00000000e+00 0.00000000e+00 
100 253.21 -1.00000000e+00 0.00000000e+00 
101 254.02 -1.00000000e+00 0.00000000e+00 
102 254.82 -1.00000000e+00 0.00000000e+00 
103 255.63 -1.00000000e+00 0.00000000e+00 
104 256.44 -1.00000000e+00 0.00000000e+00 
105 257.24 -1.00000000e+00 0.00000000e+00 
106 258.05 -1.00000000e+00 0.00000000e+00 
107 258.85 -1.00000000e+00 0.00000000e+00 
108 259.66 -1.00000000e+00 0.00000000e+00 
109 260.46 -1.00000000e+00 0.00000000e+00 
110 261.27 -1.00000000e+00 0.00000000e+00 
111 262.08 -1.00000000e+00 0.00000000e+00 
112 262.88 -1.00000000e+00 0.00000000e+00 
113 263.69 -1.00000000e+00 0.00000000e+00 
114 264.49 -1.00000000e+00 0.00000000e+00 
115 265.30 -1.00000000e+00 0.00000000e+00 
116 266.11 -1.00000000e+00 0.00000000e+00 
117 266.91 -1.00000000e+00 0.00000000e+00 
118 267.72 -1.00000000e+00 0.00000000e+00 
119 268.53 -1.00000000e+00 0.00000000e+00 
120 269.33 -1.00000000e+00 0.00000000e+00 
121 270.14 -1.00000000e+00 0.00000000e+00 
122 270.95 -1.00000000e+00 0.00000000e+00 
123 271.75 -1.00000000e+00 0.00000000e+00 
124 272.56 -1.00000000e+00 0.00000000e+00 
125 273.37 -1.00000000e+00 0.00000000e+00 
126 274.17 -1.00000000e+00 -1.00000000e+00 
127 274.98 1.47514203e+35 -1.00000000e+00 
128 275.79 1.85909177e+33 -1.00000000e+00 
129 276.59 2.73146199e+31 -1.00000000e+00 
130 277.40 4.35138833e+29 -1.00000000e+00 
131 278.21 6.50613594e+27 -1.00000000e+00 
132 279.01 1.10178805e+26 -1.00000000e+00 
133 279.82 2.06508317e+24 -1.00000000e+00 
134 280.63 3.87420492e+22 -1.00000000e+00 
135 281.43 7.94500065e+20 -1.00000000e+00 
136 282.24 2.21978951e+19 -1.00000000e+00 
137 283.05 8.65386776e+17 1.13081953e+17 
138 283.86 3.85790283e+16 4.76365560e+15 
139 284.66 1.76702243e+15 1.95052383e+14 
140 285.47 1.00748516e+14 1.08444716e+13 
141 286.28 7.91032417e+12 7.79968381e+11 
142 287.09 6.78874448e+11 5.94303468e+10 
143 287.89 6.06332600e+10 5.23523789e+09 
144 288.70 6.40096717e+09 5.17815136e+08 
145 289.51 8.80073152e+08 6.66212880e+07 
146 290.32 1.43533968e+08 1.05524980e+07 
147 291.12 2.53311980e+07 1.77895600e+06 
148 291.93 4.78836900e+06 3.19858719e+05 
149 292.74 1.09736825e+06 6.42995000e+04 
150 293.55 2.80127688e+05 1.71305234e+04 
151 294.35 8.31562734e+04 5.04959619e+03 
152 295.16 2.68014199e+04 1.36569250e+03 
153 295.97 9.51309180e+03 4.85452240e+02 
154 296.78 3.62932446e+03 1.87940872e+02 
155 297.58 1.49856970e+03 7.24956207e+01 
156 298.39 6.89427979e+02 3.35116386e+01 
157 299.20 3.44997833e+02 1.74739056e+01 
158 300.01 1.84864853e+02 8.76317596e+00 
159 300.81 1.04549370e+02 4.78676558e+00 
160 301.62 6.44601059e+01 2.93166327e+00 
161 302.43 4.03355026e+01 1.64747036e+00 
162 303.24 2.79838181e+01 1.11546159e+00 
163 304.04 1.93944931e+01 8.03780138e-01 
164 304.85 1.43511705e+01 6.62310898e-01 
165 305.66 1.06528463e+01 4.18155640e-01 
166 306.47 8.21880245e+00 3.53478104e-01 
167 307.28 6.47434378e+00 2.55707473e-01 
168 308.08 5.28350782e+00 2.15619236e-01 
169 308.89 4.50710344e+00 1.71649098e-01 
170 309.70 3.78338385e+00 1.42993540e-01 
171 310.51 3.22965336e+00 1.26244292e-01 
172 311.32 2.75443196e+00 1.20899208e-01 
173 312.12 2.37381506e+00 1.02036707e-01 
174 312.93 2.13455510e+00 8.52534249e-02 
175 313.74 1.97286367e+00 7.30978101e-02 
176 314.55 1.82295096e+00 6.65328205e-02 
177 315.36 1.68217123e+00 6.87707216e-02 
178 316.16 1.59839344e+00 6.16554581e-02 
179 316.97 1.52528679e+00 5.60238734e-02 
180 317.78 1.48119831e+00 5.56326136e-02 
181 318.59 1.41765547e+00 5.15607968e-02 
182 319.40 1.39256299e+00 5.06833531e-02 
183 320.20 1.32885754e+00 4.63243127e-02 
184 321.01 1.30281234e+00 4.26832847e-02 
185 321.82 1.29315710e+00 4.40015197e-02 
186 322.63 1.27891719e+00 4.37375642e-02 
187 323.43 1.26932633e+00 3.97871882e-02 
188 324.24 1.25562596e+00 3.80780883e-02 
189 325.05 1.26398420e+00 4.07902300e-02 
190 325.86 1.25869536e+00 3.83985341e-02 
191 326.67 1.26037014e+00 3.38974521e-02 
192 327.48 1.29087532e+00 3.76154333e-02 
193 328.28 1.29274845e+00 3.56818251e-02 
194 329.09 1.32875967e+00 3.73186469e-02 
195 329.90 1.35860753e+00 3.57628576e-02 
196 330.71 1.42197049e+00 3.39368321e-02 
197 331.52 1.51320934e+00 3.62415463e-02 
198 332.32 1.67459571e+00 3.44805345e-02 
199 333.13 1.96371567e+00 3.95117775e-02 
200 333.94 2.52258801e+00 4.15597521e-02 
201 334.75 3.38359785e+00 4.03383039e-02 
202 335.55 4.50311422e+00 5.18823899e-02 
203 336.36 6.11322832e+00 5.92339225e-02 
204 337.17 8.58149815e+00 6.01811372e-02 
205 337.98 1.19825268e+01 7.29998350e-02 
206 338.79 1.59134655e+01 7.87158310e-02 
207 339.60 2.02824898e+01 9.75010768e-02 
208 340.40 2.41623974e+01 9.57159325e-02 
209 341.21 2.73421326e+01 9.72665548e-02 
210 342.02 3.11161175e+01 1.07567415e-01 
211 342.83 3.44495964e+01 1.16136253e-01 
212 343.63 3.52356453e+01 1.15118362e-01 
213 344.44 3.64585953e+01 1.26726329e-01 
214 345.25 4.03931618e+01 1.26201391e-01 
215 346.06 4.40770569e+01 1.17807694e-01 
216 346.87 4.64509430e+01 1.29924521e-01 
217 347.67 4.80457458e+01 1.28949627e-01 
218 348.48 4.96659584e+01 1.33760333e-01 
219 349.29 5.25808334e+01 1.43738195e-01 
220 350.10 5.76438866e+01 1.56413049e-01 
221 350.90 6.10055161e+01 1.49402842e-01 
222 351.71 6.11430702e+01 1.51543409e-01 
223 352.52 6.22648735e+01 1.46363214e-01 
224 353.33 6.77804413e+01 1.53530300e-01 
225 354.14 7.45439301e+01 1.70524538e-01 
226 354.94 7.74641647e+01 1.74322113e-01 
227 355.75 7.59554901e+01 1.53874949e-01 
228 356.56 7.14940872e+01 1.58194348e-01 
229 357.37 6.71499557e+01 1.66308820e-01 
230 358.18 6.63662872e+01 1.56309590e-01 
231 358.98 7.44570313e+01 1.57770842e-01 
232 359.79 8.56555786e+01 1.92141101e-01 
233 360.60 8.69972839e+01 1.70904666e-01 
234 361.41 8.57240601e+01 1.83976471e-01 
235 362.21 9.03586807e+01 1.81261659e-01 
236 363.02 9.55839615e+01 1.77566633e-01 
237 363.83 9.86926498e+01 1.87866315e-01 
238 364.64 1.03598495e+02 1.87379003e-01 
239 365.44 1.12899826e+02 1.99574232e-01 
240 366.25 1.20805634e+02 2.05833718e-01 
241 367.06 1.21767502e+02 2.14850977e-01 
242 367.87 1.19840828e+02 2.13850155e-01 
243 368.67 1.21656174e+02 2.37486318e-01 
244 369.48 1.26792862e+02 2.19821885e-01 
245 370.29 1.27918236e+02 2.20425382e-01 
246 371.10 1.26447914e+02 1.91970393e-01 
247 371.90 1.23142807e+02 1.97079942e-01 
248 372.71 1.16310905e+02 2.12357655e-01 
249 373.52 1.09861626e+02 1.87456235e-01 
250 374.33 1.09454102e+02 1.84917763e-01 
251 375.13 1.17154007e+02 2.10943580e-01 
252 375.94 1.27591499e+02 2.13218674e-01 
253 376.75 1.38943161e+02 2.25512117e-01 
254 377.56 1.51712631e+02 2.42570728e-01 
255 378.36 1.54995224e+02 2.38798752e-01 
256 379.17 1.47240326e+02 2.29292974e-01 
257 379.98 1.44061081e+02 2.33385310e-01 
258 380.78 1.43442474e+02 2.41358563e-01 
259 381.59 1.30751053e+02 2.11717099e-01 
260 382.40 1.11562866e+02 1.94053277e-01 
261 383.20 1.02930779e+02 2.01202556e-01 
262 384.01 1.11673409e+02 2.04940304e-01 
263 384.82 1.26051765e+02 2.01272994e-01 
264 385.63 1.32123871e+02 2.16194078e-01 
265 386.43 1.33259750e+02 2.05176815e-01 
266 387.24 1.34147629e+02 2.09819421e-01 
267 388.05 1.36353180e+02 2.15991631e-01 
268 388.85 1.44580185e+02 2.38404304e-01 
269 389.66 1.57911179e+02 1.98110983e-01 
270 390.47 1.68494583e+02 2.25691706e-01 
271 391.27 1.68860779e+02 2.26714432e-01 
272 392.08 1.50394836e+02 2.30340630e-01 
273 392.89 1.22588974e+02 1.86075285e-01 
274 393.69 1.16578255e+02 1.97626472e-01 
275 394.50 1.38548569e+02 2.08015159e-01 
276 395.31 1.54248032e+02 2.35194921e-01 
277 396.11 1.44090851e+02 2.00897723e-01 
278 396.92 1.37386780e+02 2.00500980e-01 
279 397.73 1.61996933e+02 2.24538699e-01 
280 398.53 1.99185837e+02 2.59766072e-01 
281 399.34 2.23044968e+02 2.95811862e-01 
282 400.15 2.34606674e+02 3.34412068e-01 
283 400.95 2.42714951e+02 2.70244330e-01 
284 401.76 2.49019318e+02 2.88648665e-01 
285 402.57 2.50889175e+02 3.16019028e-01 
286 403.37 2.49472000e+02 2.82391936e-01 
287 404.18 2.48321671e+02 2.90802121e-01 
288 404.99 2.47268311e+02 3.06348681e-01 
289 405.79 2.46151901e+02 3.00799102e-01 
290 406.60 2.47154846e+02 3.14234376e-01 
291 407.40 2.53475494e+02 3.06821883e-01 
292 408.21 2.62820007e+02 3.21325779e-01 
293 409.02 2.66195679e+02 3.21133226e-01 
294 409.82 2.63460175e+02 3.20300311e-01 
295 410.63 2.66674713e+02 3.30057859e-01 
296 411.43 2.77707825e+02 3.54492247e-01 
297 412.24 2.85218597e+02 3.13955724e-01 
298 413.05 2.86046234e+02 3.18726450e-01 
299 413.85 2.85606323e+02 3.14713508e-01 
300 414.66 2.85850159e+02 3.07613254e-01 
301 415.46 2.86601471e+02 3.02899927e-01 
302 416.27 2.86269653e+02 3.19797724e-01 
303 417.08 2.82372437e+02 2.98514038e-01 
304 417.88 2.77222961e+02 2.89421797e-01 
305 418.69 2.74810974e+02 3.31652075e-01 
306 419.49 2.75276733e+02 3.07452738e-01 
307 420.30 2.78504944e+02 3.52848291e-01 
308 421.11 2.81109711e+02 3.34676981e-01 
309 421.91 2.78774689e+02 3.13572109e-01 
310 422.72 2.74192566e+02 3.30768824e-01 
311 423.52 2.73896576e+02 2.95489311e-01 
312 424.33 2.76835480e+02 3.14008981e-01 
313 425.13 2.78836090e+02 3.28596294e-01 
314 425.94 2.79016418e+02 3.09529394e-01 
315 426.74 2.78652313e+02 3.22519213e-01 
316 427.55 2.78296143e+02 3.23519498e-01 
317 428.36 2.74672882e+02 3.33128661e-01 
318 429.16 2.64048828e+02 3.03145051e-01 
319 429.96 2.53676605e+02 3.04501534e-01 
320 430.77 2.61385681e+02 3.06533664e-01 
321 431.58 2.88619751e+02 3.23116511e-01 
322 432.38 3.17020355e+02 3.18788409e-01 
323 433.19 3.31427216e+02 3.32147062e-01 
324 433.99 3.39696960e+02 3.52497399e-01 
325 434.80 3.53919312e+02 3.86575043e-01 
326 435.60 3.73152405e+02 3.88504922e-01 
327 436.41 3.86243835e+02 3.60528082e-01 
328 437.21 3.86941772e+02 3.98941696e-01 
329 438.02 3.82748901e+02 3.82397622e-01 
330 438.82 3.85269318e+02 3.56085747e-01 
331 439.63 3.96867493e+02 3.97407532e-01 
332 440.43 4.14092194e+02 3.74585241e-01 
333 441.24 4.31927185e+02 4.03311670e-01 
334 442.04 4.47877930e+02 4.42147344e-01 
335 442.85 4.59192108e+02 4.17566419e-01 
336 443.65 4.65959106e+02 4.18551415e-01 
337 444.45 4.68343445e+02 4.14963007e-01 
338 445.26 4.68427185e+02 4.14069533e-01 
339 446.06 4.72533722e+02 3.92550945e-01 
340 446.87 4.83349487e+02 4.56113338e-01 
341 447.67 4.97171967e+02 4.49786216e-01 
342 448.48 5.08367493e+02 4.14511889e-01 
343 449.28 5.18696838e+02 4.03239846e-01 
344 450.09 5.29830017e+02 4.67918396e-01 
345 450.89 5.35879883e+02 4.95830774e-01 
346 451.70 5.31337646e+02 4.92040306e-01 
347 452.50 5.21582886e+02 4.13028926e-01 
348 453.30 5.16824524e+02 3.80711108e-01 
349 454.11 5.19696533e+02 4.14984137e-01 
350 454.91 5.28051331e+02 3.99787158e-01 
351 455.72 5.37132385e+02 4.37093347e-01 
352 456.52 5.44430664e+02 4.89406109e-01 
353 457.32 5.47506226e+02 4.31142688e-01 
354 458.13 5.46567139e+02 4.32016850e-01 
355 458.93 5.45700867e+02 4.49735373e-01 
356 459.74 5.49184265e+02 4.72312212e-01 
357 460.54 5.56615662e+02 4.40154016e-01 
358 461.34 5.64683228e+02 4.03735638e-01 
359 462.15 5.70056702e+02 4.41257864e-01 
360 462.95 5.70017395e+02 4.98134017e-01 
361 463.76 5.66315491e+02 4.93226081e-01 
362 464.56 5.62502625e+02 4.43155497e-01 
363 465.36 5.59799255e+02 4.53723460e-01 
364 466.17 5.58742188e+02 4.34717566e-01 
365 466.97 5.59873779e+02 4.57721263e-01 
366 467.77 5.62786255e+02 4.19998437e-01 
367 468.58 5.65827454e+02 4.01080042e-01 
368 469.38 5.66397217e+02 4.34311420e-01 
369 470.18 5.67447876e+02 4.46290135e-01 
370 470.99 5.73173340e+02 4.61703718e-01 
371 471.79 5.81376404e+02 4.58404183e-01 
372 472.59 5.89019104e+02 4.93989348e-01 
373 473.40 5.94412964e+02 4.69771326e-01 
374 474.20 5.97661377e+02 4.54383940e-01 
375 475.00 6.00017944e+02 4.50007766e-01 
376 475.81 6.02226318e+02 4.56074208e-01 
377 476.61 6.06070068e+02 4.55560654e-01 
378 477.41 6.12140747e+02 5.59968174e-01 
379 478.21 6.18201111e+02 4.67551202e-01 
380 479.02 6.22374756e+02 4.50027198e-01 
381 479.82 6.24804810e+02 4.54773337e-01 
382 480.62 6.27473816e+02 4.68195289e-01 
383 481.43 6.28598022e+02 4.69754487e-01 
384 482.23 6.27376038e+02 4.98222023e-01 
385 483.03 6.22699646e+02 4.89992976e-01 
386 483.84 6.12166626e+02 4.60511237e-01 
387 484.64 5.92240234e+02 4.26038027e-01 
388 485.44 5.68971130e+02 4.39227551e-01 
389 486.24 5.55847900e+02 3.38248879e-01 
390 487.04 5.58580688e+02 4.59829003e-01 
391 487.85 5.74256958e+02 4.35748875e-01 
392 488.65 5.93251465e+02 4.56468374e-01 
393 489.45 6.05942322e+02 4.39912766e-01 
394 490.26 6.09953064e+02 4.21103984e-01 
395 491.06 6.07948242e+02 4.36528623e-01 
396 491.86 6.04236755e+02 4.40944940e-01 
397 492.66 6.04225769e+02 4.03228730e-01 
398 493.46 6.10245117e+02 4.81978297e-01 
399 494.27 6.17263062e+02 4.62262690e-01 
400 495.07 6.21103577e+02 4.43921059e-01 
401 495.87 6.22774658e+02 4.51267183e-01 
402 496.67 6.20134766e+02 4.50983793e-01 
403 497.48 6.15672913e+02 4.83099341e-01 
404 498.28 6.11133789e+02 4.36680675e-01 
405 499.08 6.05430481e+02 4.78873134e-01 
406 499.88 5.99140625e+02 4.68675494e-01 
407 500.68 5.94054932e+02 4.24268037e-01 
408 501.48 5.91747681e+02 4.39671159e-01 
409 502.29 5.93699829e+02 4.41347778e-01 
410 503.09 5.97865540e+02 4.23902690e-01 
411 503.89 6.03668701e+02 4.72866565e-01 
412 504.69 6.10403687e+02 4.89539236e-01 
413 505.49 6.15375366e+02 4.39777255e-01 
414 506.29 6.16556885e+02 4.35173661e-01 
415 507.09 6.14013184e+02 4.54422593e-01 
416 507.90 6.10728455e+02 4.40845996e-01 
417 508.70 6.09282166e+02 4.57277626e-01 
418 509.50 6.09805359e+02 4.53388005e-01 
419 510.30 6.11064758e+02 4.84764218e-01 
420 511.10 6.09996155e+02 4.74441797e-01 
421 511.90 6.06085083e+02 4.48564231e-01 
422 512.71 5.99731384e+02 4.78142679e-01 
423 513.51 5.92796265e+02 4.41112131e-01 
424 514.31 5.86914001e+02 4.55698431e-01 
425 515.11 5.77551331e+02 4.37196106e-01 
426 515.91 5.62612549e+02 3.78131986e-01 
427 516.71 5.48053833e+02 4.53092903e-01 
428 517.51 5.39900574e+02 4.16134298e-01 
429 518.31 5.43526917e+02 4.23995525e-01 
430 519.11 5.56680481e+02 3.99400294e-01 
431 519.91 5.70225830e+02 4.14642692e-01 
432 520.71 5.80291443e+02 4.44743931e-01 
433 521.52 5.84759460e+02 4.36422020e-01 
434 522.32 5.87342102e+02 4.14421141e-01 
435 523.12 5.91622864e+02 4.11639869e-01 
436 523.92 5.95646057e+02 4.70674455e-01 
437 524.72 5.95224548e+02 4.50318664e-01 
438 525.52 5.87259338e+02 4.42429602e-01 
439 526.32 5.77712219e+02 3.86517167e-01 
440 527.12 5.76357300e+02 4.64354843e-01 
441 527.92 5.84161255e+02 4.66172278e-01 
442 528.72 5.97344116e+02 4.77193922e-01 
443 529.52 6.09150635e+02 4.21941787e-01 
444 530.32 6.14378357e+02 4.81233716e-01 
445 531.12 6.12015320e+02 4.61129427e-01 
446 531.92 6.06275208e+02 4.75826979e-01 
447 532.72 6.00890381e+02 3.96549195e-01 
448 533.52 6.00075806e+02 4.49015200e-01 
449 534.32 6.04348938e+02 4.41356033e-01 
450 535.12 6.08887573e+02 4.11450982e-01 
451 535.92 6.09919495e+02 4.50525284e-01 
452 536.72 6.08627808e+02 4.05661196e-01 
453 537.52 6.05835144e+02 4.27386850e-01 
454 538.32 6.01614868e+02 4.12640572e-01 
455 539.12 5.96578308e+02 4.51177239e-01 
456 539.92 5.92258972e+02 3.83996576e-01 
457 540.72 5.90801147e+02 4.11136180e-01 
458 541.52 5.92660217e+02 4.47399229e-01 
459 542.32 5.97223389e+02 4.68505859e-01 
460 543.12 6.01871887e+02 4.67803299e-01 
461 543.92 6.05037537e+02 4.18511450e-01 
462 544.72 6.07100159e+02 4.61812675e-01 
463 545.52 6.06912537e+02 4.28171128e-01 
464 546.32 6.04148193e+02 4.74130780e-01 
465 547.12 6.00888489e+02 4.13656116e-01 
466 547.91 5.99057617e+02 4.19560462e-01 
467 548.71 5.98666565e+02 4.26530510e-01 
