% C0 (TOA Count Rate, /ms) for 4STAR VIS spectrometer (1044 channels) derived from 20160117starsun.mat and recorded on 2016-01-18 06:37:45.
% Data outside 2.0x the STD of 501 nm Langley residuals were screened out.
Pix Wavelength C0 C0err
0 173.18 -1.00000000e+00 -1.00000000e+00 
1 173.97 3.23778623e+03 9.71335870e+01 
2 174.77 2.90109910e+03 8.70329731e+01 
3 175.56 4.54257413e+03 1.36277224e+02 
4 176.36 1.73975347e+05 5.21926041e+03 
5 177.15 2.16790096e+05 6.50370287e+03 
6 177.94 2.53340989e+05 7.60022968e+03 
7 178.74 2.99246848e+05 8.97740545e+03 
8 179.53 3.38566290e+05 1.01569887e+04 
9 180.33 3.80259276e+05 1.14077783e+04 
10 181.12 4.18996902e+05 1.25699071e+04 
11 181.92 4.92032535e+05 1.47609760e+04 
12 182.71 5.13617505e+05 1.54085252e+04 
13 183.51 5.38361095e+05 1.61508329e+04 
14 184.30 5.45866465e+05 1.63759940e+04 
15 185.10 5.95041549e+05 1.78512465e+04 
16 185.89 5.72814263e+05 1.71844279e+04 
17 186.69 5.40361759e+05 1.62108528e+04 
18 187.49 5.56769311e+05 1.67030793e+04 
19 188.28 5.32089693e+05 1.59626908e+04 
20 189.08 4.84237712e+05 1.45271313e+04 
21 189.88 4.33395075e+05 1.30018522e+04 
22 190.67 3.62288563e+05 1.08686569e+04 
23 191.47 2.95285611e+05 8.85856834e+03 
24 192.27 2.38744640e+05 7.16233920e+03 
25 193.07 1.96128526e+05 5.88385577e+03 
26 193.86 1.64358354e+05 4.93075062e+03 
27 194.66 1.42466051e+05 4.27398152e+03 
28 195.46 1.14888873e+05 3.44666620e+03 
29 196.26 9.32574079e+04 2.79772224e+03 
30 197.05 7.57055840e+04 2.27116752e+03 
31 197.85 6.08102867e+04 1.82430860e+03 
32 198.65 4.93464501e+04 1.48039350e+03 
33 199.45 4.01770312e+04 1.20531094e+03 
34 200.25 3.28474905e+04 9.85424716e+02 
35 201.05 2.66084751e+04 7.98254254e+02 
36 201.85 2.15712221e+04 6.47136663e+02 
37 202.64 1.73478104e+04 5.20434313e+02 
38 203.44 1.42813662e+04 4.28440985e+02 
39 204.24 1.15863089e+04 3.47589266e+02 
40 205.04 9.43944498e+03 2.83183349e+02 
41 205.84 7.64320914e+03 2.29296274e+02 
42 206.64 6.23169212e+03 1.86950764e+02 
43 207.44 5.12351724e+03 1.53705517e+02 
44 208.24 4.12607386e+03 1.23782216e+02 
45 209.04 3.33226010e+03 9.99678029e+01 
46 209.84 2.71083299e+03 8.13249896e+01 
47 210.64 2.21048900e+03 6.63146701e+01 
48 211.44 1.83139727e+03 5.49419182e+01 
49 212.24 1.48403997e+03 4.45211992e+01 
50 213.05 1.22002033e+03 3.66006100e+01 
51 213.85 9.83919507e+02 2.95175852e+01 
52 214.65 7.76048750e+02 2.32814625e+01 
53 215.45 6.45048054e+02 1.93514416e+01 
54 216.25 5.25595696e+02 1.57678709e+01 
55 217.05 4.26969108e+02 1.28090732e+01 
56 217.85 3.51809079e+02 1.05542724e+01 
57 218.65 2.86298876e+02 8.58896627e+00 
58 219.46 2.33136649e+02 6.99409946e+00 
59 220.26 1.88843403e+02 5.66530210e+00 
60 221.06 1.54031027e+02 4.62093081e+00 
61 221.86 1.24872168e+02 3.74616505e+00 
62 222.66 1.01621035e+02 3.04863104e+00 
63 223.47 8.40251592e+01 2.52075477e+00 
64 224.27 6.78852208e+01 2.03655662e+00 
65 225.07 5.43997566e+01 1.63199270e+00 
66 225.87 4.54308806e+01 1.36292642e+00 
67 226.68 3.64915979e+01 1.09474794e+00 
68 227.48 2.98998548e+01 8.96995643e-01 
69 228.28 2.44573775e+01 7.33721326e-01 
70 229.09 2.16081959e+01 6.48245876e-01 
71 229.89 1.97215999e+01 5.91647996e-01 
72 230.69 1.93143981e+01 5.79431942e-01 
73 231.49 2.11161251e+01 6.33483752e-01 
74 232.30 2.46968849e+01 7.40906546e-01 
75 233.10 3.00938343e+01 9.02815030e-01 
76 233.91 3.88993950e+01 1.16698185e+00 
77 234.71 4.91746866e+01 1.47524060e+00 
78 235.51 6.28777359e+01 1.88633208e+00 
79 236.32 7.91201633e+01 2.37360490e+00 
80 237.12 9.99094602e+01 2.99728381e+00 
81 237.92 1.27930101e+02 3.83790302e+00 
82 238.73 1.61937543e+02 4.85812628e+00 
83 239.53 2.09557916e+02 6.28673749e+00 
84 240.34 2.61662090e+02 7.84986270e+00 
85 241.14 3.36411903e+02 1.00923571e+01 
86 241.94 4.17848242e+02 1.25354473e+01 
87 242.75 5.24884419e+02 1.57465326e+01 
88 243.55 6.32633308e+02 1.89789992e+01 
89 244.36 7.95251633e+02 2.38575490e+01 
90 245.16 9.56518169e+02 2.86955451e+01 
91 245.97 1.15505697e+03 3.46517091e+01 
92 246.77 1.34401066e+03 4.03203197e+01 
93 247.58 1.56053421e+03 4.68160263e+01 
94 248.38 1.83947030e+03 5.51841090e+01 
95 249.19 2.10485447e+03 6.31456342e+01 
96 249.99 2.30248851e+03 6.90746554e+01 
97 250.80 2.55466290e+03 7.66398870e+01 
98 251.60 2.72080779e+03 8.16242336e+01 
99 252.41 2.86656074e+03 8.59968222e+01 
100 253.21 3.06445133e+03 9.19335400e+01 
101 254.02 3.13252040e+03 9.39756120e+01 
102 254.83 3.20711898e+03 9.62135695e+01 
103 255.63 3.25918250e+03 9.77754749e+01 
104 256.44 3.07285054e+03 9.21855162e+01 
105 257.24 2.95239589e+03 8.85718767e+01 
106 258.05 2.78435499e+03 8.35306496e+01 
107 258.85 2.60897074e+03 7.82691223e+01 
108 259.66 2.32375408e+03 6.97126224e+01 
109 260.46 2.03265774e+03 6.09797323e+01 
110 261.27 1.77242137e+03 5.31726410e+01 
111 262.08 1.51694939e+03 4.55084818e+01 
112 262.88 1.28524074e+03 3.85572222e+01 
113 263.69 1.07948279e+03 3.23844837e+01 
114 264.50 9.06072906e+02 2.71821872e+01 
115 265.30 7.42633717e+02 2.22790115e+01 
116 266.11 5.98895012e+02 1.79668504e+01 
117 266.91 4.72051628e+02 1.41615488e+01 
118 267.72 3.65987165e+02 1.09796149e+01 
119 268.53 2.84295153e+02 8.52885460e+00 
120 269.33 2.24072532e+02 6.72217595e+00 
121 270.14 1.75236932e+02 5.25710796e+00 
122 270.95 1.35900265e+02 4.07700794e+00 
123 271.75 1.07658278e+02 3.22974835e+00 
124 272.56 8.19281149e+01 2.45784345e+00 
125 273.37 6.25023976e+01 1.87507193e+00 
126 274.17 4.78501585e+01 1.43550476e+00 
127 274.98 3.74501072e+01 1.12350322e+00 
128 275.79 2.88609943e+01 8.65829828e-01 
129 276.59 2.28093601e+01 6.84280803e-01 
130 277.40 1.86232323e+01 5.58696970e-01 
131 278.21 1.46919082e+01 4.40757245e-01 
132 279.01 1.14122834e+01 3.42368503e-01 
133 279.82 9.26482881e+00 2.77944864e-01 
134 280.63 7.24109165e+00 2.17232750e-01 
135 281.44 6.03411917e+00 1.81023575e-01 
136 282.24 4.85712373e+00 1.45713712e-01 
137 283.05 4.00304828e+00 1.20091448e-01 
138 283.86 3.39453490e+00 1.01836047e-01 
139 284.66 2.88096072e+00 8.64288217e-02 
140 285.47 2.41347099e+00 7.24041298e-02 
141 286.28 2.07526439e+00 6.22579316e-02 
142 287.09 1.82595779e+00 5.47787337e-02 
143 287.89 1.62289224e+00 4.86867672e-02 
144 288.70 1.41907741e+00 4.25723224e-02 
145 289.51 1.26716934e+00 3.80150803e-02 
146 290.32 1.14790100e+00 3.44370300e-02 
147 291.12 1.04820098e+00 3.14460295e-02 
148 291.93 9.55356127e-01 2.86606838e-02 
149 292.74 8.74298790e-01 2.62289637e-02 
150 293.55 8.19397289e-01 2.45819187e-02 
151 294.35 7.46750812e-01 2.24025244e-02 
152 295.16 7.03766542e-01 2.11129963e-02 
153 295.97 6.64332594e-01 1.99299778e-02 
154 296.78 6.53711851e-01 1.96113555e-02 
155 297.58 6.16048939e-01 1.84814682e-02 
156 298.39 5.84062488e-01 1.75218746e-02 
157 299.20 5.67848883e-01 1.70354665e-02 
158 300.01 5.55384269e-01 1.66615281e-02 
159 300.81 5.30788267e-01 1.59236480e-02 
160 301.62 5.18599176e-01 1.55579753e-02 
161 302.43 5.07749158e-01 1.52324747e-02 
162 303.24 5.01617621e-01 1.50485286e-02 
163 304.05 4.93943818e-01 1.48183145e-02 
164 304.85 4.78357847e-01 1.43507354e-02 
165 305.66 4.81619087e-01 1.44485726e-02 
166 306.47 4.73165018e-01 1.41949506e-02 
167 307.28 4.71113252e-01 1.41333975e-02 
168 308.08 4.67719494e-01 1.40315848e-02 
169 308.89 4.62696055e-01 1.38808817e-02 
170 309.70 4.67854277e-01 1.40356283e-02 
171 310.51 4.63391946e-01 1.39017584e-02 
172 311.32 4.65214076e-01 1.39564223e-02 
173 312.12 4.69184723e-01 1.40755417e-02 
174 312.93 4.69196342e-01 1.40758902e-02 
175 313.74 4.69266487e-01 1.40779946e-02 
176 314.55 4.78810578e-01 1.43643173e-02 
177 315.36 4.81316414e-01 1.44394924e-02 
178 316.16 4.86283282e-01 1.45884985e-02 
179 316.97 4.93073090e-01 1.47921927e-02 
180 317.78 5.02509722e-01 1.50752917e-02 
181 318.59 5.09652318e-01 1.52895695e-02 
182 319.39 5.17373700e-01 1.55212110e-02 
183 320.20 5.29963044e-01 1.58988913e-02 
184 321.01 5.50874770e-01 1.65262431e-02 
185 321.82 5.46877185e-01 1.64063155e-02 
186 322.63 5.64674940e-01 1.69402482e-02 
187 323.43 5.80899224e-01 1.74269767e-02 
188 324.24 5.96813104e-01 1.79043931e-02 
189 325.05 6.15638201e-01 1.84691460e-02 
190 325.86 6.40052075e-01 1.92015622e-02 
191 326.67 6.56898735e-01 1.97069621e-02 
192 327.48 6.78346963e-01 2.03504089e-02 
193 328.28 7.10174800e-01 2.13052440e-02 
194 329.09 7.28074508e-01 2.18422352e-02 
195 329.90 7.59199093e-01 2.27759728e-02 
196 330.71 8.00165875e-01 2.40049763e-02 
197 331.51 8.38283034e-01 2.51484910e-02 
198 332.32 9.30658830e-01 2.79197649e-02 
199 333.13 1.08424174e+00 3.25272523e-02 
200 333.94 1.39083904e+00 4.17251711e-02 
201 334.75 1.86975572e+00 5.60926715e-02 
202 335.56 2.62087176e+00 7.86261527e-02 
203 336.36 3.71070414e+00 1.11321124e-01 
204 337.17 5.48136024e+00 1.64440807e-01 
205 337.98 8.09639744e+00 2.42891923e-01 
206 338.79 1.13233881e+01 3.39701643e-01 
207 339.59 1.50434349e+01 4.51303048e-01 
208 340.40 1.85379924e+01 5.56139772e-01 
209 341.21 2.15488264e+01 6.46464791e-01 
210 342.02 2.50257962e+01 7.50773887e-01 
211 342.83 2.82532692e+01 8.47598075e-01 
212 343.64 2.93510833e+01 8.80532500e-01 
213 344.44 3.05214024e+01 9.15642073e-01 
214 345.25 3.41472360e+01 1.02441708e+00 
215 346.06 3.76782000e+01 1.13034600e+00 
216 346.87 4.00385148e+01 1.20115544e+00 
217 347.67 4.17497354e+01 1.25249206e+00 
218 348.48 4.33512771e+01 1.30053831e+00 
219 349.29 4.59988240e+01 1.37996472e+00 
220 350.10 5.06192862e+01 1.51857859e+00 
221 350.91 5.40289671e+01 1.62086901e+00 
222 351.71 5.43577352e+01 1.63073206e+00 
223 352.52 5.53548963e+01 1.66064689e+00 
224 353.33 6.02737690e+01 1.80821307e+00 
225 354.14 6.67288771e+01 2.00186631e+00 
226 354.94 6.98596777e+01 2.09579033e+00 
227 355.75 6.89198628e+01 2.06759588e+00 
228 356.56 6.51212276e+01 1.95363683e+00 
229 357.37 6.12424574e+01 1.83727372e+00 
230 358.18 6.03487253e+01 1.81046176e+00 
231 358.98 6.75678180e+01 2.02703454e+00 
232 359.79 7.84330524e+01 2.35299157e+00 
233 360.60 8.03741688e+01 2.41122506e+00 
234 361.41 7.91071191e+01 2.37321357e+00 
235 362.21 8.33112700e+01 2.49933810e+00 
236 363.02 8.84628871e+01 2.65388661e+00 
237 363.83 9.15563543e+01 2.74669063e+00 
238 364.64 9.59747206e+01 2.87924162e+00 
239 365.44 1.04596748e+02 3.13790244e+00 
240 366.25 1.12480538e+02 3.37441613e+00 
241 367.06 1.13738102e+02 3.41214307e+00 
242 367.87 1.12012884e+02 3.36038653e+00 
243 368.67 1.13499391e+02 3.40498174e+00 
244 369.48 1.18559674e+02 3.55679023e+00 
245 370.29 1.19983817e+02 3.59951450e+00 
246 371.10 1.18749240e+02 3.56247720e+00 
247 371.90 1.15908423e+02 3.47725270e+00 
248 372.71 1.09694552e+02 3.29083656e+00 
249 373.52 1.03558096e+02 3.10674287e+00 
250 374.33 1.02725340e+02 3.08176019e+00 
251 375.13 1.09716284e+02 3.29148853e+00 
252 375.94 1.19700823e+02 3.59102470e+00 
253 376.75 1.30340451e+02 3.91021353e+00 
254 377.55 1.42775431e+02 4.28326293e+00 
255 378.36 1.46863361e+02 4.40590083e+00 
256 379.17 1.39759406e+02 4.19278217e+00 
257 379.98 1.36319658e+02 4.08958973e+00 
258 380.78 1.36403428e+02 4.09210285e+00 
259 381.59 1.25202486e+02 3.75607457e+00 
260 382.40 1.06761078e+02 3.20283235e+00 
261 383.21 9.76450762e+01 2.92935229e+00 
262 384.01 1.05388956e+02 3.16166867e+00 
263 384.82 1.19585328e+02 3.58755983e+00 
264 385.63 1.25986348e+02 3.77959044e+00 
265 386.43 1.27261115e+02 3.81783345e+00 
266 387.24 1.28266767e+02 3.84800302e+00 
267 388.05 1.30335957e+02 3.91007872e+00 
268 388.85 1.38201105e+02 4.14603315e+00 
269 389.66 1.51281550e+02 4.53844651e+00 
270 390.47 1.62228556e+02 4.86685668e+00 
271 391.27 1.63958393e+02 4.91875178e+00 
272 392.08 1.47593992e+02 4.42781975e+00 
273 392.89 1.20328980e+02 3.60986939e+00 
274 393.69 1.12790114e+02 3.38370342e+00 
275 394.50 1.34226678e+02 4.02680035e+00 
276 395.31 1.51622285e+02 4.54866856e+00 
277 396.11 1.42810010e+02 4.28430029e+00 
278 396.92 1.34805582e+02 4.04416746e+00 
279 397.73 1.58090677e+02 4.74272032e+00 
280 398.53 1.96037623e+02 5.88112870e+00 
281 399.34 2.20960495e+02 6.62881486e+00 
282 400.15 2.33173410e+02 6.99520229e+00 
283 400.95 2.41651539e+02 7.24954617e+00 
284 401.76 2.48537882e+02 7.45613645e+00 
285 402.57 2.51002628e+02 7.53007884e+00 
286 403.37 2.49823251e+02 7.49469754e+00 
287 404.18 2.48696815e+02 7.46090446e+00 
288 404.98 2.47631859e+02 7.42895576e+00 
289 405.79 2.46340869e+02 7.39022608e+00 
290 406.60 2.46917877e+02 7.40753632e+00 
291 407.40 2.52672737e+02 7.58018211e+00 
292 408.21 2.62140212e+02 7.86420637e+00 
293 409.02 2.66282867e+02 7.98848602e+00 
294 409.82 2.63385529e+02 7.90156588e+00 
295 410.63 2.65881896e+02 7.97645687e+00 
296 411.44 2.77072881e+02 8.31218644e+00 
297 412.24 2.85162769e+02 8.55488308e+00 
298 413.05 2.86264612e+02 8.58793836e+00 
299 413.85 2.86103937e+02 8.58311812e+00 
300 414.66 2.86730795e+02 8.60192386e+00 
301 415.46 2.88087585e+02 8.64262755e+00 
302 416.27 2.88726826e+02 8.66180478e+00 
303 417.08 2.85663992e+02 8.56991977e+00 
304 417.88 2.81032433e+02 8.43097299e+00 
305 418.69 2.79042477e+02 8.37127431e+00 
306 419.49 2.80005270e+02 8.40015810e+00 
307 420.30 2.83858005e+02 8.51574015e+00 
308 421.11 2.87569007e+02 8.62707021e+00 
309 421.91 2.86129694e+02 8.58389081e+00 
310 422.72 2.81856680e+02 8.45570040e+00 
311 423.52 2.81760587e+02 8.45281760e+00 
312 424.33 2.85071835e+02 8.55215505e+00 
313 425.13 2.87185510e+02 8.61556530e+00 
314 425.94 2.87089266e+02 8.61267799e+00 
315 426.74 2.86161525e+02 8.58484575e+00 
316 427.55 2.84940096e+02 8.54820287e+00 
317 428.35 2.80738349e+02 8.42215048e+00 
318 429.16 2.69293224e+02 8.07879672e+00 
319 429.96 2.56524844e+02 7.69574533e+00 
320 430.77 2.61076891e+02 7.83230672e+00 
321 431.58 2.86645309e+02 8.59935926e+00 
322 432.38 3.14174023e+02 9.42522070e+00 
323 433.19 3.27238167e+02 9.81714501e+00 
324 433.99 3.32943646e+02 9.98830938e+00 
325 434.80 3.44136478e+02 1.03240943e+01 
326 435.60 3.60967659e+02 1.08290298e+01 
327 436.41 3.72619409e+02 1.11785823e+01 
328 437.21 3.72092967e+02 1.11627890e+01 
329 438.02 3.66098736e+02 1.09829621e+01 
330 438.82 3.66267777e+02 1.09880333e+01 
331 439.63 3.75660918e+02 1.12698276e+01 
332 440.43 3.90565952e+02 1.17169785e+01 
333 441.24 4.06129894e+02 1.21838968e+01 
334 442.04 4.20051926e+02 1.26015578e+01 
335 442.84 4.29591255e+02 1.28877377e+01 
336 443.65 4.34855547e+02 1.30456664e+01 
337 444.45 4.36575395e+02 1.30972618e+01 
338 445.26 4.35789971e+02 1.30736991e+01 
339 446.06 4.38375457e+02 1.31512637e+01 
340 446.87 4.47616801e+02 1.34285040e+01 
341 447.67 4.60139890e+02 1.38041967e+01 
342 448.48 4.70147327e+02 1.41044198e+01 
343 449.28 4.79242106e+02 1.43772632e+01 
344 450.09 4.89239445e+02 1.46771833e+01 
345 450.89 4.95248814e+02 1.48574644e+01 
346 451.69 4.91269014e+02 1.47380704e+01 
347 452.50 4.81713325e+02 1.44513997e+01 
348 453.30 4.76624110e+02 1.42987233e+01 
349 454.11 4.79040017e+02 1.43712005e+01 
350 454.91 4.86791919e+02 1.46037576e+01 
351 455.72 4.95381553e+02 1.48614466e+01 
352 456.52 5.02435754e+02 1.50730726e+01 
353 457.32 5.05635669e+02 1.51690701e+01 
354 458.13 5.04707372e+02 1.51412212e+01 
355 458.93 5.03623347e+02 1.51087004e+01 
356 459.74 5.06266416e+02 1.51879925e+01 
357 460.54 5.12666024e+02 1.53799807e+01 
358 461.34 5.20000056e+02 1.56000017e+01 
359 462.15 5.25187167e+02 1.57556150e+01 
360 462.95 5.25812027e+02 1.57743608e+01 
361 463.76 5.22910231e+02 1.56873069e+01 
362 464.56 5.19750451e+02 1.55925135e+01 
363 465.36 5.17460383e+02 1.55238115e+01 
364 466.17 5.16275034e+02 1.54882510e+01 
365 466.97 5.16810283e+02 1.55043085e+01 
366 467.77 5.19305418e+02 1.55791625e+01 
367 468.58 5.22309133e+02 1.56692740e+01 
368 469.38 5.23158782e+02 1.56947635e+01 
369 470.18 5.23856157e+02 1.57156847e+01 
370 470.99 5.28948383e+02 1.58684515e+01 
371 471.79 5.36930503e+02 1.61079151e+01 
372 472.59 5.44236284e+02 1.63270885e+01 
373 473.40 5.49371248e+02 1.64811374e+01 
374 474.20 5.52769220e+02 1.65830766e+01 
375 475.00 5.55008216e+02 1.66502465e+01 
376 475.81 5.56569910e+02 1.66970973e+01 
377 476.61 5.59450899e+02 1.67835270e+01 
378 477.41 5.64762241e+02 1.69428672e+01 
379 478.21 5.70213902e+02 1.71064171e+01 
380 479.02 5.73986606e+02 1.72195982e+01 
381 479.82 5.76088752e+02 1.72826626e+01 
382 480.62 5.78501938e+02 1.73550581e+01 
383 481.43 5.79837274e+02 1.73951182e+01 
384 482.23 5.78940609e+02 1.73682183e+01 
385 483.03 5.74867476e+02 1.72460243e+01 
386 483.84 5.65600959e+02 1.69680288e+01 
387 484.64 5.47724845e+02 1.64317454e+01 
388 485.44 5.25688506e+02 1.57706552e+01 
389 486.24 5.12268263e+02 1.53680479e+01 
390 487.05 5.13979218e+02 1.54193765e+01 
391 487.85 5.28064566e+02 1.58419370e+01 
392 488.65 5.45327639e+02 1.63598292e+01 
393 489.45 5.57301459e+02 1.67190438e+01 
394 490.26 5.61593698e+02 1.68478109e+01 
395 491.06 5.59927038e+02 1.67978111e+01 
396 491.86 5.56148305e+02 1.66844492e+01 
397 492.66 5.55719919e+02 1.66715976e+01 
398 493.46 5.60931776e+02 1.68279533e+01 
399 494.27 5.67503374e+02 1.70251012e+01 
400 495.07 5.71373044e+02 1.71411913e+01 
401 495.87 5.73087870e+02 1.71926361e+01 
402 496.67 5.71054805e+02 1.71316441e+01 
403 497.48 5.66601718e+02 1.69980515e+01 
404 498.28 5.61822248e+02 1.68546674e+01 
405 499.08 5.56222650e+02 1.66866795e+01 
406 499.88 5.50305355e+02 1.65091606e+01 
407 500.68 5.45330505e+02 1.63599152e+01 
408 501.48 5.42888709e+02 1.62866613e+01 
409 502.29 5.44657395e+02 1.63397218e+01 
410 503.09 5.48567153e+02 1.64570146e+01 
411 503.89 5.53598310e+02 1.66079493e+01 
412 504.69 5.59421640e+02 1.67826492e+01 
413 505.49 5.64099560e+02 1.69229868e+01 
414 506.29 5.65510613e+02 1.69653184e+01 
415 507.09 5.63280361e+02 1.68984108e+01 
416 507.90 5.60276241e+02 1.68082872e+01 
417 508.70 5.58991476e+02 1.67697443e+01 
418 509.50 5.59402887e+02 1.67820866e+01 
419 510.30 5.60504582e+02 1.68151375e+01 
420 511.10 5.59824064e+02 1.67947219e+01 
421 511.90 5.56492235e+02 1.66947670e+01 
422 512.70 5.50845921e+02 1.65253776e+01 
423 513.51 5.44435217e+02 1.63330565e+01 
424 514.31 5.39211869e+02 1.61763561e+01 
425 515.11 5.31437950e+02 1.59431385e+01 
426 515.91 5.18137675e+02 1.55441302e+01 
427 516.71 5.04136468e+02 1.51240940e+01 
428 517.51 4.95699123e+02 1.48709737e+01 
429 518.31 4.98291612e+02 1.49487484e+01 
430 519.11 5.10035543e+02 1.53010663e+01 
431 519.91 5.22598266e+02 1.56779480e+01 
432 520.71 5.32124542e+02 1.59637363e+01 
433 521.51 5.36220612e+02 1.60866184e+01 
434 522.32 5.38233084e+02 1.61469925e+01 
435 523.12 5.41919198e+02 1.62575759e+01 
436 523.92 5.45907685e+02 1.63772306e+01 
437 524.72 5.46286492e+02 1.63885947e+01 
438 525.52 5.39536345e+02 1.61860904e+01 
439 526.32 5.30419116e+02 1.59125735e+01 
440 527.12 5.28235493e+02 1.58470648e+01 
441 527.92 5.34992168e+02 1.60497650e+01 
442 528.72 5.47017168e+02 1.64105150e+01 
443 529.52 5.57887552e+02 1.67366266e+01 
444 530.32 5.62902197e+02 1.68870659e+01 
445 531.12 5.61369515e+02 1.68410855e+01 
446 531.92 5.56293622e+02 1.66888087e+01 
447 532.72 5.51424118e+02 1.65427235e+01 
448 533.52 5.50572124e+02 1.65171637e+01 
449 534.32 5.54634018e+02 1.66390205e+01 
450 535.12 5.59159815e+02 1.67747944e+01 
451 535.92 5.60180035e+02 1.68054010e+01 
452 536.72 5.58874806e+02 1.67662442e+01 
453 537.52 5.56506589e+02 1.66951977e+01 
454 538.32 5.53008392e+02 1.65902517e+01 
455 539.12 5.48426519e+02 1.64527956e+01 
456 539.92 5.43960843e+02 1.63188253e+01 
457 540.72 5.42124947e+02 1.62637484e+01 
458 541.52 5.43671034e+02 1.63101310e+01 
459 542.32 5.47904086e+02 1.64371226e+01 
460 543.12 5.52306426e+02 1.65691928e+01 
461 543.92 5.55582932e+02 1.66674880e+01 
462 544.72 5.57659884e+02 1.67297965e+01 
463 545.52 5.57654704e+02 1.67296411e+01 
464 546.31 5.55396241e+02 1.66618872e+01 
465 547.12 5.52432924e+02 1.65729877e+01 
466 547.91 5.50788444e+02 1.65236533e+01 
467 548.71 5.50453500e+02 1.65136050e+01 
468 549.51 5.50728085e+02 1.65218425e+01 
469 550.31 5.50310460e+02 1.65093138e+01 
470 551.11 5.49502592e+02 1.64850778e+01 
471 551.91 5.48905861e+02 1.64671758e+01 
472 552.71 5.48719061e+02 1.64615718e+01 
