% C0 (TOA Count Rate, /ms) for 4STAR VIS spectrometer (1044 channels) derived from 4STAR_20160927starsun.mat and recorded on 2017-06-26 16:46:20.
% Using the MLO from September 2016 high altitude AOD for stratospheric AOD component, calculating the c0 from the AOD at low airmass. 
Pix Wavelength C0 C0err
0 173.18 0.00000000e+00 0.00000000e+00 
1 173.98 -1.00000000e+00 0.00000000e+00 
2 174.77 -1.00000000e+00 0.00000000e+00 
3 175.56 -1.00000000e+00 0.00000000e+00 
4 176.36 -1.00000000e+00 0.00000000e+00 
5 177.15 -1.00000000e+00 0.00000000e+00 
6 177.94 -1.00000000e+00 0.00000000e+00 
7 178.74 -1.00000000e+00 0.00000000e+00 
8 179.53 -1.00000000e+00 0.00000000e+00 
9 180.33 -1.00000000e+00 0.00000000e+00 
10 181.12 -1.00000000e+00 0.00000000e+00 
11 181.92 -1.00000000e+00 0.00000000e+00 
12 182.71 -1.00000000e+00 0.00000000e+00 
13 183.51 -1.00000000e+00 0.00000000e+00 
14 184.30 -1.00000000e+00 0.00000000e+00 
15 185.10 -1.00000000e+00 0.00000000e+00 
16 185.89 -1.00000000e+00 0.00000000e+00 
17 186.69 -1.00000000e+00 0.00000000e+00 
18 187.49 -1.00000000e+00 0.00000000e+00 
19 188.28 -1.00000000e+00 0.00000000e+00 
20 189.08 -1.00000000e+00 0.00000000e+00 
21 189.88 -1.00000000e+00 0.00000000e+00 
22 190.67 -1.00000000e+00 0.00000000e+00 
23 191.47 -1.00000000e+00 0.00000000e+00 
24 192.27 -1.00000000e+00 0.00000000e+00 
25 193.07 -1.00000000e+00 0.00000000e+00 
26 193.86 -1.00000000e+00 0.00000000e+00 
27 194.66 -1.00000000e+00 0.00000000e+00 
28 195.46 -1.00000000e+00 0.00000000e+00 
29 196.26 -1.00000000e+00 0.00000000e+00 
30 197.05 -1.00000000e+00 0.00000000e+00 
31 197.85 -1.00000000e+00 0.00000000e+00 
32 198.65 -1.00000000e+00 0.00000000e+00 
33 199.45 -1.00000000e+00 0.00000000e+00 
34 200.25 -1.00000000e+00 0.00000000e+00 
35 201.05 -1.00000000e+00 0.00000000e+00 
36 201.85 -1.00000000e+00 0.00000000e+00 
37 202.65 -1.00000000e+00 0.00000000e+00 
38 203.44 -1.00000000e+00 0.00000000e+00 
39 204.24 -1.00000000e+00 0.00000000e+00 
40 205.04 -1.00000000e+00 0.00000000e+00 
41 205.84 -1.00000000e+00 0.00000000e+00 
42 206.64 -1.00000000e+00 0.00000000e+00 
43 207.44 -1.00000000e+00 0.00000000e+00 
44 208.24 -1.00000000e+00 0.00000000e+00 
45 209.04 -1.00000000e+00 0.00000000e+00 
46 209.84 -1.00000000e+00 0.00000000e+00 
47 210.64 -1.00000000e+00 0.00000000e+00 
48 211.44 -1.00000000e+00 0.00000000e+00 
49 212.24 -1.00000000e+00 0.00000000e+00 
50 213.04 -1.00000000e+00 -1.00000000e+00 
51 213.85 -1.00000000e+00 -1.00000000e+00 
52 214.65 -1.00000000e+00 -1.00000000e+00 
53 215.45 7.77766184e+34 -1.00000000e+00 
54 216.25 8.64383772e+33 -1.00000000e+00 
55 217.05 9.09739001e+32 -1.00000000e+00 
56 217.85 1.02393028e+32 -1.00000000e+00 
57 218.65 1.15142471e+31 -1.00000000e+00 
58 219.46 1.27118278e+30 -1.00000000e+00 
59 220.26 1.40209384e+29 -1.00000000e+00 
60 221.06 1.53824241e+28 -1.00000000e+00 
61 221.86 1.72504270e+27 -1.00000000e+00 
62 222.66 1.88377191e+26 -1.00000000e+00 
63 223.47 2.07638442e+25 -1.00000000e+00 
64 224.27 2.32971612e+24 -1.00000000e+00 
65 225.07 2.62356656e+23 -1.00000000e+00 
66 225.87 2.94110704e+22 -1.00000000e+00 
67 226.68 3.30669287e+21 -1.00000000e+00 
68 227.48 3.97235713e+20 -1.00000000e+00 
69 228.28 5.47902521e+19 -1.00000000e+00 
70 229.08 1.09304980e+19 -1.00000000e+00 
71 229.89 4.18220358e+18 4.14676962e+17 
72 230.69 4.02249869e+18 4.06008275e+17 
73 231.49 1.04462115e+19 -1.00000000e+00 
74 232.30 5.97218344e+19 -1.00000000e+00 
75 233.10 5.47364860e+20 -1.00000000e+00 
76 233.90 6.25332521e+21 -1.00000000e+00 
77 234.71 7.90746977e+22 -1.00000000e+00 
78 235.51 1.01692281e+24 -1.00000000e+00 
79 236.32 1.33869336e+25 -1.00000000e+00 
80 237.12 1.78776122e+26 -1.00000000e+00 
81 237.92 2.46342248e+27 -1.00000000e+00 
82 238.73 3.40513980e+28 -1.00000000e+00 
83 239.53 4.73751810e+29 -1.00000000e+00 
84 240.34 6.29242685e+30 -1.00000000e+00 
85 241.14 7.98854361e+31 -1.00000000e+00 
86 241.94 9.09191058e+32 -1.00000000e+00 
87 242.75 9.34345272e+33 -1.00000000e+00 
88 243.55 9.17340903e+34 -1.00000000e+00 
89 244.36 -1.00000000e+00 -1.00000000e+00 
90 245.16 -1.00000000e+00 -1.00000000e+00 
91 245.97 -1.00000000e+00 -1.00000000e+00 
92 246.77 -1.00000000e+00 -1.00000000e+00 
93 247.58 -1.00000000e+00 0.00000000e+00 
94 248.38 -1.00000000e+00 0.00000000e+00 
95 249.19 -1.00000000e+00 0.00000000e+00 
96 249.99 -1.00000000e+00 0.00000000e+00 
97 250.80 -1.00000000e+00 0.00000000e+00 
98 251.60 -1.00000000e+00 0.00000000e+00 
99 252.41 -1.00000000e+00 0.00000000e+00 
100 253.21 -1.00000000e+00 0.00000000e+00 
101 254.02 -1.00000000e+00 0.00000000e+00 
102 254.82 -1.00000000e+00 0.00000000e+00 
103 255.63 -1.00000000e+00 0.00000000e+00 
104 256.44 -1.00000000e+00 0.00000000e+00 
105 257.24 -1.00000000e+00 0.00000000e+00 
106 258.05 -1.00000000e+00 0.00000000e+00 
107 258.85 -1.00000000e+00 0.00000000e+00 
108 259.66 -1.00000000e+00 0.00000000e+00 
109 260.46 -1.00000000e+00 0.00000000e+00 
110 261.27 -1.00000000e+00 0.00000000e+00 
111 262.08 -1.00000000e+00 0.00000000e+00 
112 262.88 -1.00000000e+00 -1.00000000e+00 
113 263.69 -1.00000000e+00 -1.00000000e+00 
114 264.49 -1.00000000e+00 -1.00000000e+00 
115 265.30 3.11386466e+35 -1.00000000e+00 
116 266.11 2.94317471e+34 -1.00000000e+00 
117 266.91 2.49163720e+33 -1.00000000e+00 
118 267.72 1.78722661e+32 -1.00000000e+00 
119 268.53 1.07021452e+31 -1.00000000e+00 
120 269.33 7.11330441e+29 -1.00000000e+00 
121 270.14 5.50328817e+28 -1.00000000e+00 
122 270.95 4.07332916e+27 -1.00000000e+00 
123 271.75 2.65025092e+26 -1.00000000e+00 
124 272.56 1.58732238e+25 -1.00000000e+00 
125 273.37 8.24390685e+23 -1.00000000e+00 
126 274.17 4.34310755e+22 -1.00000000e+00 
127 274.98 2.59262576e+21 -1.00000000e+00 
128 275.79 1.79610203e+20 -1.00000000e+00 
129 276.59 1.39634370e+19 -1.00000000e+00 
130 277.40 1.09664369e+18 1.05530508e+17 
131 278.21 8.48826155e+16 7.65693563e+15 
132 279.01 6.84237575e+15 5.84772212e+14 
133 279.82 6.20825913e+14 5.01681960e+13 
134 280.63 5.39108363e+13 4.12568807e+12 
135 281.43 4.90268892e+12 3.48569502e+11 
136 282.24 5.77469809e+11 3.96807250e+10 
137 283.05 7.85401119e+10 5.14537472e+09 
138 283.86 1.16149484e+10 7.12633088e+08 
139 284.66 1.77342835e+09 1.02698320e+08 
140 285.47 3.01798976e+08 1.63887680e+07 
141 286.28 6.50490120e+07 3.44059850e+06 
142 287.09 1.43681880e+07 7.36283000e+05 
143 287.89 3.34852200e+06 1.59700547e+05 
144 288.70 8.28468938e+05 3.90698008e+04 
145 289.51 2.47215531e+05 1.15350889e+04 
146 290.32 8.17045391e+04 3.69626538e+03 
147 291.12 2.86140410e+04 1.25957251e+03 
148 291.93 1.03537588e+04 4.51260712e+02 
149 292.74 4.11031592e+03 1.66552200e+02 
150 293.55 1.81765100e+03 7.31187439e+01 
151 294.35 8.64421631e+02 3.58725395e+01 
152 295.16 4.28784149e+02 1.76522579e+01 
153 295.97 2.29954086e+02 9.08381367e+00 
154 296.78 1.26790169e+02 4.92530727e+00 
155 297.58 7.47855606e+01 2.89502978e+00 
156 298.39 4.61001015e+01 1.74279869e+00 
157 299.20 3.07421703e+01 1.09122014e+00 
158 300.01 2.12014561e+01 7.85384297e-01 
159 300.81 1.48881445e+01 5.46552300e-01 
160 301.62 1.10948477e+01 4.37317818e-01 
161 302.43 8.40890789e+00 2.99043983e-01 
162 303.24 6.62285137e+00 2.25071490e-01 
163 304.04 5.27624559e+00 1.91281915e-01 
164 304.85 4.32814074e+00 1.54928014e-01 
165 305.66 3.65100765e+00 1.30317852e-01 
166 306.47 3.04352093e+00 1.08783036e-01 
167 307.28 2.72180653e+00 9.51663926e-02 
168 308.08 2.37381792e+00 7.85328075e-02 
169 308.89 2.14679766e+00 7.36960843e-02 
170 309.70 1.94415903e+00 6.63067326e-02 
171 310.51 1.79134297e+00 6.06367625e-02 
172 311.32 1.65808403e+00 5.57128228e-02 
173 312.12 1.50572801e+00 4.85940836e-02 
174 312.93 1.42372274e+00 4.82795499e-02 
175 313.74 1.32142150e+00 8.42080638e-02 
176 314.55 1.28782129e+00 4.27374169e-02 
177 315.36 1.23301876e+00 3.81336324e-02 
178 316.16 1.18330526e+00 3.69149074e-02 
179 316.97 1.17329085e+00 3.66981849e-02 
180 317.78 1.14735651e+00 3.49627957e-02 
181 318.59 1.12954199e+00 3.42918374e-02 
182 319.40 1.11645353e+00 3.38156074e-02 
183 320.20 1.11379957e+00 3.22980918e-02 
184 321.01 1.11020827e+00 3.20305377e-02 
185 321.82 1.10270751e+00 3.45208310e-02 
186 322.63 1.11201024e+00 3.22671570e-02 
187 323.43 1.10385704e+00 3.11181415e-02 
188 324.24 1.11127794e+00 3.05666793e-02 
189 325.05 1.14219093e+00 3.05084977e-02 
190 325.86 1.14418817e+00 2.94114333e-02 
191 326.67 1.17503130e+00 2.86473222e-02 
192 327.48 1.18121743e+00 3.13195810e-02 
193 328.28 1.22033405e+00 2.98015904e-02 
194 329.09 1.23042512e+00 3.04122288e-02 
195 329.90 1.27681184e+00 3.09095643e-02 
196 330.71 1.34539878e+00 2.90426426e-02 
197 331.52 1.41234446e+00 2.89663412e-02 
198 332.32 1.56607819e+00 3.09540704e-02 
199 333.13 1.83990574e+00 3.17485854e-02 
200 333.94 2.34871149e+00 3.47506218e-02 
201 334.75 3.13464117e+00 3.81352492e-02 
202 335.55 4.22849560e+00 4.13172469e-02 
203 336.36 5.75397348e+00 5.24371192e-02 
204 337.17 8.10962868e+00 6.09248057e-02 
205 337.98 1.13876572e+01 7.49027953e-02 
206 338.79 1.52225456e+01 9.10483971e-02 
207 339.60 1.95557842e+01 9.93262380e-02 
208 340.40 2.33842621e+01 1.13597959e-01 
209 341.21 2.65788231e+01 1.18707262e-01 
210 342.02 3.03826656e+01 1.29220739e-01 
211 342.83 3.37438431e+01 1.31377846e-01 
212 343.63 3.46270218e+01 1.25837356e-01 
213 344.44 3.57587433e+01 1.29434302e-01 
214 345.25 3.96625519e+01 1.36021242e-01 
215 346.06 4.33763466e+01 1.51384875e-01 
216 346.87 4.58058052e+01 1.44973680e-01 
217 347.67 4.75066948e+01 1.41694367e-01 
218 348.48 4.90987053e+01 1.42197862e-01 
219 349.29 5.19587517e+01 1.52359769e-01 
220 350.10 5.69654732e+01 1.60010651e-01 
221 350.90 6.04484177e+01 1.63955495e-01 
222 351.71 6.05969124e+01 1.64937615e-01 
223 352.52 6.16282997e+01 1.67874292e-01 
224 353.33 6.69626923e+01 1.80785209e-01 
225 354.14 7.37928085e+01 1.92972451e-01 
226 354.94 7.68948898e+01 1.84250653e-01 
227 355.75 7.55869217e+01 1.89986452e-01 
228 356.56 7.12014465e+01 1.81768298e-01 
229 357.37 6.68506699e+01 1.67418957e-01 
230 358.18 6.58502960e+01 1.73472628e-01 
231 358.98 7.36795425e+01 1.91020280e-01 
232 359.79 8.50241394e+01 2.05800474e-01 
233 360.60 8.66821823e+01 2.11737737e-01 
234 361.41 8.52412109e+01 1.93619698e-01 
235 362.21 8.97419586e+01 2.16155127e-01 
236 363.02 9.50839386e+01 2.17198402e-01 
237 363.83 9.82378006e+01 2.03314885e-01 
238 364.64 1.02964188e+02 2.27434963e-01 
239 365.44 1.12184822e+02 2.36820489e-01 
240 366.25 1.20353836e+02 2.59749502e-01 
241 367.06 1.21520569e+02 2.59042263e-01 
242 367.87 1.19567451e+02 2.39280626e-01 
243 368.67 1.21140648e+02 2.50310630e-01 
244 369.48 1.26418434e+02 2.66385436e-01 
245 370.29 1.27747078e+02 2.62104601e-01 
246 371.10 1.26345490e+02 2.62229681e-01 
247 371.90 1.23217354e+02 2.56173402e-01 
248 372.71 1.16483322e+02 2.28759006e-01 
249 373.52 1.10044182e+02 2.18354911e-01 
250 374.33 1.09309662e+02 2.27281436e-01 
251 375.13 1.16837639e+02 2.30201185e-01 
252 375.94 1.27409973e+02 2.65419453e-01 
253 376.75 1.38670120e+02 2.77352452e-01 
254 377.56 1.51785217e+02 2.83471882e-01 
255 378.36 1.55688904e+02 2.88788497e-01 
256 379.17 1.47858994e+02 2.74932027e-01 
257 379.98 1.44352966e+02 2.71872222e-01 
258 380.78 1.44224899e+02 2.66775489e-01 
259 381.59 1.31934204e+02 2.45817199e-01 
260 382.40 1.12398209e+02 2.14899302e-01 
261 383.20 1.03117462e+02 2.11277366e-01 
262 384.01 1.11490097e+02 2.21860975e-01 
263 384.82 1.26215858e+02 2.34937891e-01 
264 385.63 1.32483994e+02 2.56286025e-01 
265 386.43 1.33578522e+02 2.51238137e-01 
266 387.24 1.34476379e+02 2.64721066e-01 
267 388.05 1.36515305e+02 2.71150291e-01 
268 388.85 1.44526749e+02 2.75106668e-01 
269 389.66 1.57884933e+02 2.76774377e-01 
270 390.47 1.68636627e+02 3.07107598e-01 
271 391.27 1.69617401e+02 3.03828269e-01 
272 392.08 1.51721802e+02 2.74885118e-01 
273 392.89 1.23190941e+02 2.48782232e-01 
274 393.69 1.15734695e+02 2.30982825e-01 
275 394.50 1.37633774e+02 2.56537944e-01 
276 395.31 1.54415115e+02 2.78277844e-01 
277 396.11 1.44406403e+02 2.74102867e-01 
278 396.92 1.36207153e+02 2.41601855e-01 
279 397.73 1.59848511e+02 2.89726764e-01 
280 398.53 1.97219650e+02 3.38770360e-01 
281 399.34 2.21169968e+02 3.30634147e-01 
282 400.15 2.32679626e+02 3.52928698e-01 
283 400.95 2.40605911e+02 3.80484253e-01 
284 401.76 2.46976471e+02 3.96106809e-01 
285 402.57 2.48850479e+02 3.85983676e-01 
286 403.37 2.47226471e+02 3.81404400e-01 
287 404.18 2.45788116e+02 3.93730551e-01 
288 404.99 2.44450287e+02 3.88907373e-01 
289 405.79 2.43132904e+02 3.85619909e-01 
290 406.60 2.43803406e+02 3.85164887e-01 
291 407.40 2.49646362e+02 3.97760570e-01 
292 408.21 2.59072845e+02 3.86214346e-01 
293 409.02 2.62873352e+02 4.13928717e-01 
294 409.82 2.59767426e+02 3.99906456e-01 
295 410.63 2.62337921e+02 4.13668156e-01 
296 411.43 2.73281677e+02 4.23314512e-01 
297 412.24 2.80715149e+02 4.64452982e-01 
298 413.05 2.81408936e+02 4.50668454e-01 
299 413.85 2.81027161e+02 4.62834716e-01 
300 414.66 2.81276489e+02 4.65411395e-01 
301 415.46 2.82102753e+02 4.59970623e-01 
302 416.27 2.81991394e+02 4.56768870e-01 
303 417.08 2.78118896e+02 4.11451668e-01 
304 417.88 2.72912781e+02 4.23229098e-01 
305 418.69 2.70417725e+02 4.06948894e-01 
306 419.49 2.70713440e+02 4.32081223e-01 
307 420.30 2.73885956e+02 3.89921159e-01 
308 421.11 2.76817993e+02 4.10924643e-01 
309 421.91 2.74641266e+02 3.93273711e-01 
310 422.72 2.69953308e+02 3.69113892e-01 
311 423.52 2.69504974e+02 3.65314752e-01 
312 424.33 2.72361115e+02 3.56726974e-01 
313 425.13 2.74240967e+02 3.57404262e-01 
314 425.94 2.74378693e+02 3.46928537e-01 
315 426.74 2.73967102e+02 3.63398224e-01 
316 427.55 2.73477875e+02 3.50928605e-01 
317 428.36 2.70271454e+02 3.47366899e-01 
318 429.16 2.60093597e+02 3.36917013e-01 
319 429.96 2.49110367e+02 3.10973376e-01 
320 430.77 2.55538620e+02 3.07038397e-01 
321 431.58 2.82539948e+02 3.37037653e-01 
322 432.38 3.11020447e+02 3.54753703e-01 
323 433.19 3.25307770e+02 3.62001240e-01 
324 433.99 3.33003662e+02 4.01880145e-01 
325 434.80 3.46609039e+02 4.05191571e-01 
326 435.60 3.65695740e+02 4.29910511e-01 
327 436.41 3.79209686e+02 4.64650869e-01 
328 437.21 3.80262878e+02 4.58147317e-01 
329 438.02 3.75871582e+02 4.40710992e-01 
330 438.82 3.78063171e+02 4.69155550e-01 
331 439.63 3.89494354e+02 5.06431282e-01 
332 440.43 4.06278168e+02 4.87786442e-01 
333 441.24 4.23812408e+02 5.14480233e-01 
334 442.04 4.39677460e+02 5.36949873e-01 
335 442.85 4.50881104e+02 5.80877900e-01 
336 443.65 4.57595673e+02 5.75583935e-01 
337 444.45 4.60351593e+02 5.80721915e-01 
338 445.26 4.60305878e+02 5.93229890e-01 
339 446.06 4.63891418e+02 5.92356503e-01 
340 446.87 4.74632874e+02 5.73063195e-01 
341 447.67 4.88417297e+02 5.94654024e-01 
342 448.48 4.99368439e+02 6.58211589e-01 
343 449.28 5.09394897e+02 6.71870410e-01 
344 450.09 5.20424561e+02 6.57680213e-01 
345 450.89 5.26944275e+02 6.52357578e-01 
346 451.70 5.22647095e+02 6.75800264e-01 
347 452.50 5.12793701e+02 6.65935993e-01 
348 453.30 5.07893311e+02 6.89393401e-01 
349 454.11 5.10784058e+02 6.75232053e-01 
350 454.91 5.18742126e+02 7.06204593e-01 
351 455.72 5.27584534e+02 6.96756959e-01 
352 456.52 5.34847717e+02 7.09805608e-01 
353 457.32 5.38121704e+02 7.22162247e-01 
354 458.13 5.37018005e+02 6.96803272e-01 
355 458.93 5.35919861e+02 7.00492501e-01 
356 459.74 5.39091125e+02 7.31750548e-01 
357 460.54 5.46216919e+02 7.35293746e-01 
358 461.34 5.54352722e+02 7.68322051e-01 
359 462.15 5.59848572e+02 7.29909718e-01 
360 462.95 5.60143494e+02 7.39905238e-01 
361 463.76 5.56570862e+02 7.21556067e-01 
362 464.56 5.52886169e+02 7.39890218e-01 
363 465.36 5.50421082e+02 7.24988282e-01 
364 466.17 5.49314209e+02 7.27643967e-01 
365 466.97 5.50098633e+02 7.29186058e-01 
366 467.77 5.52783203e+02 6.99791849e-01 
367 468.58 5.55810730e+02 7.35287130e-01 
368 469.38 5.56538452e+02 7.19706416e-01 
369 470.18 5.57285461e+02 7.46508181e-01 
370 470.99 5.62887878e+02 7.11047590e-01 
371 471.79 5.71486267e+02 7.40146041e-01 
372 472.59 5.79155212e+02 7.43432820e-01 
373 473.40 5.84333801e+02 7.86921620e-01 
374 474.20 5.87809692e+02 7.41440892e-01 
375 475.00 5.90140503e+02 7.56962180e-01 
376 475.81 5.91961365e+02 7.69984245e-01 
377 476.61 5.95396667e+02 7.98634887e-01 
378 477.41 6.01390747e+02 7.95666397e-01 
379 478.21 6.07395081e+02 7.62362242e-01 
380 479.02 6.11599365e+02 7.73204744e-01 
381 479.82 6.14020020e+02 8.08829725e-01 
382 480.62 6.16742065e+02 7.84048676e-01 
383 481.43 6.18259583e+02 7.65272498e-01 
384 482.23 6.17230103e+02 7.47313797e-01 
385 483.03 6.12907837e+02 7.52351880e-01 
386 483.84 6.03099060e+02 7.17676759e-01 
387 484.64 5.84059937e+02 7.01985717e-01 
388 485.44 5.60640076e+02 7.13006318e-01 
389 486.24 5.46733215e+02 6.47046447e-01 
390 487.04 5.49283569e+02 6.68636620e-01 
391 487.85 5.65018066e+02 6.76565588e-01 
392 488.65 5.83877930e+02 6.93392098e-01 
393 489.45 5.97034485e+02 6.70931041e-01 
394 490.26 6.01741455e+02 7.15122640e-01 
395 491.06 5.99846985e+02 7.01026142e-01 
396 491.86 5.95928284e+02 6.91583812e-01 
397 492.66 5.95833801e+02 7.03927875e-01 
398 493.46 6.01751099e+02 7.25279331e-01 
399 494.27 6.08858276e+02 7.26141274e-01 
400 495.07 6.12828491e+02 7.25998223e-01 
401 495.87 6.14494385e+02 6.97777450e-01 
402 496.67 6.12177063e+02 7.35882998e-01 
403 497.48 6.07699951e+02 7.16046810e-01 
404 498.28 6.03041626e+02 7.50967264e-01 
405 499.08 5.97529541e+02 7.25003302e-01 
406 499.88 5.91439270e+02 7.06416368e-01 
407 500.68 5.86036255e+02 7.12524593e-01 
408 501.48 5.83460327e+02 6.77965283e-01 
409 502.29 5.85377563e+02 6.92044199e-01 
410 503.09 5.89575867e+02 6.98954105e-01 
411 503.89 5.94890198e+02 7.16418147e-01 
412 504.69 6.01266724e+02 6.87482476e-01 
413 505.49 6.06484192e+02 6.50105715e-01 
414 506.29 6.07829041e+02 6.39439344e-01 
415 507.09 6.05186584e+02 6.54442668e-01 
416 507.90 6.01956360e+02 6.89960778e-01 
417 508.70 6.00624329e+02 6.78890407e-01 
418 509.50 6.01200867e+02 7.08802104e-01 
419 510.30 6.02453613e+02 7.22546220e-01 
420 511.10 6.01766113e+02 6.99731052e-01 
421 511.90 5.98189514e+02 7.31325269e-01 
422 512.71 5.91993652e+02 7.43500769e-01 
423 513.51 5.84997131e+02 7.26661026e-01 
424 514.31 5.79200745e+02 7.19365954e-01 
425 515.11 5.70453125e+02 6.79731965e-01 
426 515.91 5.55684509e+02 6.41100764e-01 
427 516.71 5.40399414e+02 5.99754751e-01 
428 517.51 5.31600647e+02 6.32041752e-01 
429 518.31 5.34835327e+02 6.25896752e-01 
430 519.11 5.47708618e+02 6.46996319e-01 
431 519.91 5.61285889e+02 6.48836195e-01 
432 520.71 5.71549744e+02 6.73690021e-01 
433 521.52 5.76070007e+02 6.78208053e-01 
434 522.32 5.78453796e+02 6.72629058e-01 
435 523.12 5.82526428e+02 6.60280049e-01 
436 523.92 5.86817200e+02 6.60014749e-01 
437 524.72 5.86815247e+02 6.53287053e-01 
438 525.52 5.78815308e+02 6.38555825e-01 
439 526.32 5.68418152e+02 6.56662226e-01 
440 527.12 5.65948608e+02 6.56157911e-01 
441 527.92 5.73384644e+02 6.54813945e-01 
442 528.72 5.86250061e+02 7.09224164e-01 
443 529.52 5.97571899e+02 7.18804657e-01 
444 530.32 6.02723938e+02 7.11681485e-01 
445 531.12 6.00852966e+02 7.35279441e-01 
446 531.92 5.95121399e+02 7.13247299e-01 
447 532.72 5.89780212e+02 7.05520213e-01 
448 533.52 5.88871033e+02 7.10465670e-01 
449 534.32 5.93224060e+02 6.99133933e-01 
450 535.12 5.98104980e+02 6.93830252e-01 
451 535.92 5.99306335e+02 7.07116902e-01 
452 536.72 5.97775269e+02 7.09310770e-01 
453 537.52 5.94921448e+02 7.02396095e-01 
454 538.32 5.90763489e+02 6.86501443e-01 
455 539.12 5.85487366e+02 6.86276913e-01 
456 539.92 5.80567322e+02 6.61945760e-01 
457 540.72 5.78703979e+02 6.75786972e-01 
458 541.52 5.80370117e+02 7.16183007e-01 
459 542.32 5.84775208e+02 7.17147648e-01 
460 543.12 5.89197998e+02 7.29348183e-01 
461 543.92 5.92457458e+02 7.20209002e-01 
462 544.72 5.94572021e+02 7.00807869e-01 
463 545.52 5.94470032e+02 7.18352735e-01 
464 546.32 5.91893799e+02 6.99123681e-01 
465 547.12 5.88573669e+02 7.05451310e-01 
466 547.91 5.86717468e+02 7.20438182e-01 
467 548.71 5.86438293e+02 7.32516706e-01 
