% C0 (TOA Count Rate, /ms) for 4STAR VIS spectrometer (1044 channels) derived from (SEE Original files for sources) and recorded on 2017-06-13 22:33:30.
% Langley at MLO and airborne Data outside 2.0x the STD of 501 nm Langley residuals were screened out. 
% Including high Altitude rate spectra, matched to splined stratospheric AOD measured at MLO.
% Averages of c0 from multiple days including: , infl-ig-ht, infl-ig-ht, high- a-lt, high- a-lt, high- a-lt. See the list of files below
% 20160908_VIS_C0_refined_Langley_airborne_ORACLES_v1.dat
% 20160918_VIS_C0_refined_Langley_airborne_ORACLES_v1.dat
% 20160908_VIS_C0_refined_high_alt_low_m.dat
% 20160912_VIS_C0_refined_high_alt_low_m.dat
% 20160918_VIS_C0_refined_high_alt_low_m.dat
Pix Wavelength C0 C0err
0 173.18 -4.00000000e-01 5.47722558e-01 
1 173.98 -1.00000000e+00 0.00000000e+00 
2 174.77 -1.00000000e+00 0.00000000e+00 
3 175.56 -1.00000000e+00 0.00000000e+00 
4 176.36 -1.00000000e+00 0.00000000e+00 
5 177.15 -1.00000000e+00 0.00000000e+00 
6 177.94 -1.00000000e+00 0.00000000e+00 
7 178.74 -1.00000000e+00 0.00000000e+00 
8 179.53 -1.00000000e+00 0.00000000e+00 
9 180.33 -1.00000000e+00 0.00000000e+00 
10 181.12 -1.00000000e+00 0.00000000e+00 
11 181.92 -1.00000000e+00 0.00000000e+00 
12 182.71 -1.00000000e+00 0.00000000e+00 
13 183.51 -1.00000000e+00 0.00000000e+00 
14 184.30 -1.00000000e+00 0.00000000e+00 
15 185.10 -1.00000000e+00 0.00000000e+00 
16 185.89 -1.00000000e+00 0.00000000e+00 
17 186.69 -1.00000000e+00 0.00000000e+00 
18 187.49 -1.00000000e+00 0.00000000e+00 
19 188.28 -1.00000000e+00 0.00000000e+00 
20 189.08 -1.00000000e+00 0.00000000e+00 
21 189.88 -1.00000000e+00 0.00000000e+00 
22 190.67 -1.00000000e+00 0.00000000e+00 
23 191.47 -1.00000000e+00 0.00000000e+00 
24 192.27 -1.00000000e+00 0.00000000e+00 
25 193.07 -1.00000000e+00 0.00000000e+00 
26 193.86 -1.00000000e+00 0.00000000e+00 
27 194.66 -1.00000000e+00 0.00000000e+00 
28 195.46 -1.00000000e+00 0.00000000e+00 
29 196.26 -1.00000000e+00 0.00000000e+00 
30 197.05 -1.00000000e+00 0.00000000e+00 
31 197.85 -1.00000000e+00 0.00000000e+00 
32 198.65 -1.00000000e+00 0.00000000e+00 
33 199.45 -1.00000000e+00 0.00000000e+00 
34 200.25 -1.00000000e+00 0.00000000e+00 
35 201.05 -1.00000000e+00 0.00000000e+00 
36 201.85 -1.00000000e+00 0.00000000e+00 
37 202.65 -1.00000000e+00 0.00000000e+00 
38 203.44 -1.00000000e+00 0.00000000e+00 
39 204.24 -1.00000000e+00 0.00000000e+00 
40 205.04 -1.00000000e+00 0.00000000e+00 
41 205.84 -1.00000000e+00 0.00000000e+00 
42 206.64 -1.00000000e+00 0.00000000e+00 
43 207.44 -1.00000000e+00 0.00000000e+00 
44 208.24 -1.00000000e+00 0.00000000e+00 
45 209.04 -8.00000000e-01 4.47213595e-01 
46 209.84 -7.11098057e-01 6.46004383e-01 
47 210.64 -6.89498091e-01 6.94303376e-01 
48 211.44 -6.58887863e-01 7.62749926e-01 
49 212.24 4.66353326e+34 1.04279774e+35 
50 213.04 3.35324953e+34 5.92834823e+34 
51 213.85 2.28754588e+34 3.97942787e+34 
52 214.65 2.86244502e+33 4.92528360e+33 
53 215.45 3.52548930e+32 5.99536686e+32 
54 216.25 4.34160386e+31 7.28062065e+31 
55 217.05 5.41595766e+30 8.98378238e+30 
56 217.85 6.73876815e+29 1.10168456e+30 
57 218.65 8.33951286e+28 1.33743431e+29 
58 219.46 1.04379345e+28 1.65496748e+28 
59 220.26 1.31884513e+27 2.05317065e+27 
60 221.06 1.61839186e+26 2.48330617e+26 
61 221.86 2.03645426e+25 3.06796455e+25 
62 222.66 2.54622346e+24 3.77037480e+24 
63 223.47 3.21611609e+23 4.68510673e+23 
64 224.27 4.04548673e+22 5.73852008e+22 
65 225.07 5.19959019e+21 7.29456691e+21 
66 225.87 6.53138187e+20 8.95310041e+20 
67 226.68 8.34371146e+19 1.12129881e+20 
68 227.48 1.12373269e+19 1.47479768e+19 
69 228.28 1.74509991e+18 2.24817520e+18 
70 229.08 3.78916631e+17 4.78196402e+17 
71 229.89 1.52218137e+17 1.88928480e+17 
72 230.69 1.48388268e+17 1.86465508e+17 
73 231.49 3.64380160e+17 4.64479145e+17 
74 232.30 1.86336215e+18 2.41273487e+18 
75 233.10 1.51305658e+19 2.00774612e+19 
76 233.90 1.49840066e+20 2.04511412e+20 
77 234.71 1.61266680e+21 2.26099182e+21 
78 235.51 1.82402327e+22 2.63458324e+22 
79 236.32 2.04304197e+23 2.99641333e+23 
80 237.12 2.37885821e+24 3.58005570e+24 
81 237.92 2.81744953e+25 4.34570406e+25 
82 238.73 3.36458662e+26 5.29196363e+26 
83 239.53 4.02977014e+27 6.48776848e+27 
84 240.34 4.65487738e+28 7.64676485e+28 
85 241.14 5.07550026e+29 8.49291450e+29 
86 241.94 5.08297880e+30 8.66710541e+30 
87 242.75 4.63568773e+31 7.97289303e+31 
88 243.55 4.00205931e+32 7.01005680e+32 
89 244.36 3.06636245e+33 5.41869174e+33 
90 245.16 2.21362444e+34 3.95741501e+34 
91 245.97 2.26359839e+34 4.07212775e+34 
92 246.77 1.17415279e+35 2.13030193e+35 
93 247.58 8.85151848e+34 1.97925970e+35 
94 248.38 -6.19072270e-01 8.51780298e-01 
95 249.19 -5.82029080e-01 9.34611390e-01 
96 249.99 -5.89974404e-01 9.16845105e-01 
97 250.80 -7.88477804e-01 4.72978010e-01 
98 251.60 -7.22788936e-01 6.19862784e-01 
99 252.41 -7.38201511e-01 5.85399218e-01 
100 253.21 2.03072566e+00 6.77690860e+00 
101 254.02 4.50756042e+01 1.03028183e+02 
102 254.82 1.82126526e+01 4.29607972e+01 
103 255.63 2.61411376e+02 5.86769675e+02 
104 256.44 2.92018052e+00 8.76579013e+00 
105 257.24 -6.42367721e-01 7.99690088e-01 
106 258.05 -7.10883468e-01 6.46484218e-01 
107 258.85 -7.77426688e-01 4.97689055e-01 
108 259.66 -7.34877509e-01 5.92831913e-01 
109 260.46 -6.87627709e-01 6.98485677e-01 
110 261.27 -7.08168173e-01 6.52555804e-01 
111 262.08 5.17829486e+34 1.15790193e+35 
112 262.88 5.57637262e+34 1.00490303e+35 
113 263.69 5.74293466e+34 1.04360042e+35 
114 264.49 9.08471541e+33 1.62412866e+34 
115 265.30 1.26949252e+33 2.26435665e+33 
116 266.11 1.39349530e+32 2.44408829e+32 
117 266.91 1.30508440e+31 2.25954321e+31 
118 267.72 1.08279945e+30 1.85553809e+30 
119 268.53 7.73041527e+28 1.29994634e+29 
120 269.33 5.77419485e+27 9.45885277e+27 
121 270.14 5.28531908e+26 8.52104736e+26 
122 270.95 4.42498553e+25 7.01485154e+25 
123 271.75 3.37903221e+24 5.24400505e+24 
124 272.56 2.36369357e+23 3.58206744e+23 
125 273.37 1.45985621e+22 2.16899370e+22 
126 274.17 8.85833474e+20 1.27179928e+21 
127 274.98 6.45239356e+19 9.09682900e+19 
128 275.79 5.18923364e+18 7.10989030e+18 
129 276.59 4.64565292e+17 6.21475829e+17 
130 277.40 4.24201803e+16 5.51058688e+16 
131 278.21 3.83243041e+15 4.85647431e+15 
132 279.01 3.70203116e+14 4.56979199e+14 
133 279.82 3.81096894e+13 4.55769606e+13 
134 280.63 3.84420287e+12 4.49620121e+12 
135 281.43 4.11642488e+11 4.70436498e+11 
136 282.24 5.33935465e+10 5.93918479e+10 
137 283.05 8.30488126e+09 9.03847025e+09 
138 283.86 1.40416942e+09 1.50333800e+09 
139 284.66 2.39971152e+08 2.52663668e+08 
140 285.47 4.62786250e+07 4.75629535e+07 
141 286.28 1.08548900e+07 1.09968583e+07 
142 287.09 2.67884737e+06 2.68317274e+06 
143 287.89 6.70187015e+05 6.58119202e+05 
144 288.70 1.86846693e+05 1.82470570e+05 
145 289.51 6.02430536e+04 5.84415243e+04 
146 290.32 2.13490666e+04 2.04369878e+04 
147 291.12 7.97539744e+03 7.58991726e+03 
148 291.93 3.11013927e+03 2.93852795e+03 
149 292.74 1.33166024e+03 1.24879775e+03 
150 293.55 6.18733617e+02 5.79432076e+02 
151 294.35 3.06305257e+02 2.84343164e+02 
152 295.16 1.60758107e+02 1.48760036e+02 
153 295.97 8.84413764e+01 8.14459052e+01 
154 296.78 5.14754096e+01 4.71730229e+01 
155 297.58 3.12521035e+01 2.83960102e+01 
156 298.39 1.99573932e+01 1.79167428e+01 
157 299.20 1.36365479e+01 1.21419808e+01 
158 300.01 9.60899157e+00 8.40908483e+00 
159 300.81 7.07400529e+00 6.04969312e+00 
160 301.62 5.40628786e+00 4.53686458e+00 
161 302.43 4.20262957e+00 3.40767748e+00 
162 303.24 3.37653496e+00 2.66528000e+00 
163 304.04 2.85073163e+00 2.17121106e+00 
164 304.85 2.38126564e+00 1.72656224e+00 
165 305.66 2.04902218e+00 1.45896209e+00 
166 306.47 1.79187701e+00 1.18463345e+00 
167 307.28 1.59157293e+00 1.03110553e+00 
168 308.08 1.45745203e+00 9.00307239e-01 
169 308.89 1.33986507e+00 7.72944739e-01 
170 309.70 1.23308045e+00 6.80597710e-01 
171 310.51 1.16403838e+00 5.85094988e-01 
172 311.32 1.08268566e+00 5.54081486e-01 
173 312.12 1.03171932e+00 4.64860364e-01 
174 312.93 9.86742145e-01 4.16427122e-01 
175 313.74 9.62807880e-01 3.81353578e-01 
176 314.55 9.22985853e-01 3.64254609e-01 
177 315.36 8.93749654e-01 3.29336872e-01 
178 316.16 8.90050567e-01 3.07711932e-01 
179 316.97 8.63316404e-01 3.17974271e-01 
180 317.78 8.76138460e-01 2.71724157e-01 
181 318.59 8.63496757e-01 2.66079388e-01 
182 319.40 8.60323583e-01 2.62387356e-01 
183 320.20 8.76305283e-01 2.31382917e-01 
184 321.01 8.61220396e-01 2.42168263e-01 
185 321.82 8.80050575e-01 2.15834153e-01 
186 322.63 8.89126717e-01 2.26038140e-01 
187 323.43 9.04439185e-01 2.01060692e-01 
188 324.24 9.01948881e-01 2.02542260e-01 
189 325.05 9.34028745e-01 2.01781311e-01 
190 325.86 9.46235202e-01 2.00672600e-01 
191 326.67 9.66994871e-01 1.92940502e-01 
192 327.48 9.95962036e-01 1.84236681e-01 
193 328.28 1.02258255e+00 1.79338108e-01 
194 329.09 1.05403888e+00 1.85303810e-01 
195 329.90 1.10531494e+00 1.66547866e-01 
196 330.71 1.16345462e+00 1.64789285e-01 
197 331.52 1.24804113e+00 1.65763559e-01 
198 332.32 1.39742451e+00 1.80858777e-01 
199 333.13 1.67358052e+00 1.77298827e-01 
200 333.94 2.14894311e+00 2.17787067e-01 
201 334.75 2.96795383e+00 2.22445002e-01 
202 335.55 4.07373018e+00 2.37499030e-01 
203 336.36 5.55096493e+00 3.17685572e-01 
204 337.17 7.90379906e+00 3.92316701e-01 
205 337.98 1.11738018e+01 4.82234226e-01 
206 338.79 1.50249985e+01 5.78828860e-01 
207 339.60 1.93328369e+01 6.71256525e-01 
208 340.40 2.32154846e+01 7.47240328e-01 
209 341.21 2.64403442e+01 7.85124923e-01 
210 342.02 3.02446827e+01 8.17139329e-01 
211 342.83 3.37108483e+01 8.68082123e-01 
212 343.63 3.46399101e+01 8.54580372e-01 
213 344.44 3.57785683e+01 8.35377638e-01 
214 345.25 3.95492447e+01 8.54053947e-01 
215 346.06 4.33301903e+01 9.07196557e-01 
216 346.87 4.57642868e+01 9.31501427e-01 
217 347.67 4.75027306e+01 9.56597499e-01 
218 348.48 4.90726204e+01 9.56719658e-01 
219 349.29 5.18852287e+01 9.86791709e-01 
220 350.10 5.68996727e+01 1.06124921e+00 
221 350.90 6.04193268e+01 1.10227056e+00 
222 351.71 6.05246399e+01 1.09273126e+00 
223 352.52 6.14868294e+01 1.11882015e+00 
224 353.33 6.66708786e+01 1.18064177e+00 
225 354.14 7.34460586e+01 1.29428392e+00 
226 354.94 7.65117126e+01 1.33376073e+00 
227 355.75 7.51720703e+01 1.30156634e+00 
228 356.56 7.07273773e+01 1.21235302e+00 
229 357.37 6.63467376e+01 1.12883043e+00 
230 358.18 6.51512642e+01 1.08088646e+00 
231 358.98 7.27478134e+01 1.19843331e+00 
232 359.79 8.41314865e+01 1.35836654e+00 
233 360.60 8.57755386e+01 1.37758239e+00 
234 361.41 8.42168243e+01 1.35421756e+00 
235 362.21 8.86211365e+01 1.40193555e+00 
236 363.02 9.38314652e+01 1.47903390e+00 
237 363.83 9.69232788e+01 1.51651879e+00 
238 364.64 1.01531642e+02 1.58670541e+00 
239 365.44 1.10641394e+02 1.71355179e+00 
240 366.25 1.18916109e+02 1.81972557e+00 
241 367.06 1.20114333e+02 1.87310447e+00 
242 367.87 1.18126244e+02 1.82113175e+00 
243 368.67 1.19691740e+02 1.88599824e+00 
244 369.48 1.25319434e+02 1.98943282e+00 
245 370.29 1.26672902e+02 1.99209554e+00 
246 371.10 1.25396846e+02 1.98528758e+00 
247 371.90 1.22505872e+02 1.94858492e+00 
248 372.71 1.15795988e+02 1.84529345e+00 
249 373.52 1.09424487e+02 1.78208655e+00 
250 374.33 1.08630515e+02 1.73977465e+00 
251 375.13 1.16435909e+02 1.89569751e+00 
252 375.94 1.27150842e+02 2.07373869e+00 
253 376.75 1.38381540e+02 2.23870115e+00 
254 377.56 1.52082928e+02 2.50494063e+00 
255 378.36 1.56476236e+02 2.59813134e+00 
256 379.17 1.48161862e+02 2.42661107e+00 
257 379.98 1.44885559e+02 2.39069994e+00 
258 380.78 1.45550189e+02 2.46042182e+00 
259 381.59 1.33312042e+02 2.27112627e+00 
260 382.40 1.13157954e+02 1.86929260e+00 
261 383.20 1.03298564e+02 1.70560516e+00 
262 384.01 1.12161691e+02 1.89808976e+00 
263 384.82 1.27598438e+02 2.24876157e+00 
264 385.63 1.33894958e+02 2.33468921e+00 
265 386.43 1.34822793e+02 2.38127727e+00 
266 387.24 1.35743582e+02 2.42701509e+00 
267 388.05 1.37360581e+02 2.41737848e+00 
268 388.85 1.45304565e+02 2.55181440e+00 
269 389.66 1.59001361e+02 2.82987870e+00 
270 390.47 1.69889957e+02 3.05456400e+00 
271 391.27 1.71331784e+02 3.17577451e+00 
272 392.08 1.53319876e+02 2.93001448e+00 
273 392.89 1.22827666e+02 2.24060501e+00 
274 393.69 1.14184590e+02 1.99583243e+00 
275 394.50 1.37383768e+02 2.61828871e+00 
276 395.31 1.55376230e+02 3.05128104e+00 
277 396.11 1.44028220e+02 2.74045929e+00 
278 396.92 1.33521896e+02 2.37295723e+00 
279 397.73 1.57635773e+02 2.94815811e+00 
280 398.53 1.95835092e+02 3.82902993e+00 
281 399.34 2.19257288e+02 4.17414461e+00 
282 400.15 2.29823703e+02 4.33912130e+00 
283 400.95 2.37306110e+02 4.44060482e+00 
284 401.76 2.43371598e+02 4.56395913e+00 
285 402.57 2.44869662e+02 4.59837106e+00 
286 403.37 2.42912280e+02 4.55029092e+00 
287 404.18 2.41252545e+02 4.59551474e+00 
288 404.99 2.39921744e+02 4.56754585e+00 
289 405.79 2.38277774e+02 4.58568580e+00 
290 406.60 2.38457623e+02 4.56888642e+00 
291 407.40 2.43875766e+02 4.68086487e+00 
292 408.21 2.53193609e+02 4.93822002e+00 
293 409.02 2.57092157e+02 5.10764544e+00 
294 409.82 2.52933820e+02 4.98008622e+00 
295 410.63 2.54940778e+02 5.08182917e+00 
296 411.43 2.66411566e+02 5.54485954e+00 
297 412.24 2.73751471e+02 5.80408166e+00 
298 413.05 2.73944916e+02 5.82554545e+00 
299 413.85 2.73461084e+02 5.84053078e+00 
300 414.66 2.73554504e+02 5.91632251e+00 
301 415.46 2.74209107e+02 5.92894768e+00 
302 416.27 2.74606970e+02 6.05198370e+00 
303 417.08 2.70546545e+02 6.00797227e+00 
304 417.88 2.65229956e+02 5.90119162e+00 
305 418.69 2.63095541e+02 5.90118452e+00 
306 419.49 2.63267410e+02 5.90828882e+00 
307 420.30 2.66476636e+02 5.95442556e+00 
308 421.11 2.70151227e+02 6.01482811e+00 
309 421.91 2.68158649e+02 5.84707614e+00 
310 422.72 2.63192819e+02 5.55684232e+00 
311 423.52 2.63243924e+02 5.55443340e+00 
312 424.33 2.67052783e+02 5.54906854e+00 
313 425.13 2.69173511e+02 5.53931527e+00 
314 425.94 2.69917328e+02 5.53899663e+00 
315 426.74 2.70096216e+02 5.42678297e+00 
316 427.55 2.70029395e+02 5.40411525e+00 
317 428.36 2.68134680e+02 5.26299786e+00 
318 429.16 2.58506232e+02 4.90550030e+00 
319 429.96 2.46640500e+02 4.37277919e+00 
320 430.77 2.52693442e+02 4.32289531e+00 
321 431.58 2.82082910e+02 5.13796502e+00 
322 432.38 3.12750641e+02 5.79223675e+00 
323 433.19 3.26956311e+02 5.79084118e+00 
324 433.99 3.34292682e+02 5.77238985e+00 
325 434.80 3.48578101e+02 5.78025374e+00 
326 435.60 3.69628174e+02 6.17098994e+00 
327 436.41 3.84767566e+02 6.32974205e+00 
328 437.21 3.86163367e+02 6.32936703e+00 
329 438.02 3.80401532e+02 6.07174019e+00 
330 438.82 3.83296802e+02 6.04992509e+00 
331 439.63 3.95662146e+02 6.24999437e+00 
332 440.43 4.13149762e+02 6.48496769e+00 
333 441.24 4.31653113e+02 6.65608726e+00 
334 442.04 4.48819647e+02 6.95977588e+00 
335 442.85 4.60018909e+02 6.93822304e+00 
336 443.65 4.67082654e+02 6.93667615e+00 
337 444.45 4.70605786e+02 6.91990322e+00 
338 445.26 4.69661469e+02 6.73941995e+00 
339 446.06 4.73006769e+02 6.58274457e+00 
340 446.87 4.84213184e+02 6.66454134e+00 
341 447.67 4.99478382e+02 6.99142575e+00 
342 448.48 5.09542151e+02 6.96076792e+00 
343 449.28 5.19698266e+02 6.99629095e+00 
344 450.09 5.30953088e+02 6.99419272e+00 
345 450.89 5.38594910e+02 7.21143295e+00 
346 451.70 5.33495898e+02 6.94644988e+00 
347 452.50 5.22088080e+02 6.59185068e+00 
348 453.30 5.16292090e+02 6.33472307e+00 
349 454.11 5.18838770e+02 6.24514166e+00 
350 454.91 5.27113501e+02 6.25153533e+00 
351 455.72 5.35800806e+02 6.19564120e+00 
352 456.52 5.43138330e+02 6.26797428e+00 
353 457.32 5.46200781e+02 6.26852086e+00 
354 458.13 5.43889697e+02 6.16161913e+00 
355 458.93 5.42228027e+02 5.99971324e+00 
356 459.74 5.45200611e+02 6.00246052e+00 
357 460.54 5.52255139e+02 6.01717093e+00 
358 461.34 5.60352490e+02 6.02405141e+00 
359 462.15 5.65495850e+02 5.94576607e+00 
360 462.95 5.65247766e+02 5.90644879e+00 
361 463.76 5.61113855e+02 5.68865592e+00 
362 464.56 5.56585461e+02 5.59906692e+00 
363 465.36 5.54006006e+02 5.56759705e+00 
364 466.17 5.52430200e+02 5.49505719e+00 
365 466.97 5.52163172e+02 5.48122692e+00 
366 467.77 5.54561987e+02 5.50099367e+00 
367 468.58 5.58766431e+02 5.56705644e+00 
368 469.38 5.58897107e+02 5.50096400e+00 
369 470.18 5.58437964e+02 5.23346044e+00 
370 470.99 5.63312439e+02 5.16851776e+00 
371 471.79 5.72177930e+02 5.31736701e+00 
372 472.59 5.80301282e+02 5.52935969e+00 
373 473.40 5.85051965e+02 5.43981374e+00 
374 474.20 5.88436536e+02 5.27352777e+00 
375 475.00 5.91644006e+02 5.46179181e+00 
376 475.81 5.92397974e+02 5.36713907e+00 
377 476.61 5.95969373e+02 5.37897754e+00 
378 477.41 6.01994812e+02 5.52092646e+00 
379 478.21 6.08968432e+02 5.65531370e+00 
380 479.02 6.12868665e+02 5.60638872e+00 
381 479.82 6.15222607e+02 5.58195273e+00 
382 480.62 6.18586572e+02 5.60607855e+00 
383 481.43 6.19807300e+02 5.51595203e+00 
384 482.23 6.19279443e+02 5.40411161e+00 
385 483.03 6.15757580e+02 5.55434918e+00 
386 483.84 6.06100610e+02 5.38748852e+00 
387 484.64 5.87481531e+02 5.35054864e+00 
388 485.44 5.63049915e+02 4.93029702e+00 
389 486.24 5.47728149e+02 4.61482055e+00 
390 487.04 5.51227295e+02 4.69848156e+00 
391 487.85 5.69080652e+02 5.21035064e+00 
392 488.65 5.87568774e+02 5.23706867e+00 
393 489.45 6.01192078e+02 5.27999399e+00 
394 490.26 6.07375671e+02 5.35711872e+00 
395 491.06 6.06010462e+02 5.36627463e+00 
396 491.86 6.01316748e+02 5.15228265e+00 
397 492.66 6.01051477e+02 5.07259287e+00 
398 493.46 6.08137976e+02 5.25940887e+00 
399 494.27 6.15839783e+02 5.29129945e+00 
400 495.07 6.20193066e+02 5.38387030e+00 
401 495.87 6.22692444e+02 5.72016753e+00 
402 496.67 6.20732178e+02 5.48463487e+00 
403 497.48 6.15505481e+02 5.41289615e+00 
404 498.28 6.11196448e+02 5.26470894e+00 
405 499.08 6.06020129e+02 5.16178688e+00 
406 499.88 6.01386816e+02 5.22249953e+00 
407 500.68 5.94442871e+02 4.93224834e+00 
408 501.48 5.92105920e+02 4.75214643e+00 
409 502.29 5.94513977e+02 4.73601673e+00 
410 503.09 5.99990747e+02 4.83466505e+00 
411 503.89 6.05640796e+02 5.05101224e+00 
412 504.69 6.12223242e+02 5.01260281e+00 
413 505.49 6.17709314e+02 5.17799596e+00 
414 506.29 6.20033740e+02 5.43285201e+00 
415 507.09 6.16658106e+02 5.29024890e+00 
416 507.90 6.12902112e+02 5.19632726e+00 
417 508.70 6.11892468e+02 5.08620182e+00 
418 509.50 6.12863098e+02 5.06105206e+00 
419 510.30 6.13927857e+02 4.90718004e+00 
420 511.10 6.12951001e+02 4.95528790e+00 
421 511.90 6.10459460e+02 4.86711071e+00 
422 512.71 6.03496790e+02 4.77673462e+00 
423 513.51 5.96211170e+02 4.64630431e+00 
424 514.31 5.90425146e+02 4.51128329e+00 
425 515.11 5.82518762e+02 4.58302487e+00 
426 515.91 5.67366553e+02 4.55547209e+00 
427 516.71 5.50454541e+02 4.23847451e+00 
428 517.51 5.40914648e+02 3.99753237e+00 
429 518.31 5.44319641e+02 4.05967052e+00 
430 519.11 5.58140686e+02 4.28361670e+00 
431 519.91 5.71465003e+02 4.43851130e+00 
432 520.71 5.82694617e+02 4.46770730e+00 
433 521.52 5.86997790e+02 4.47641618e+00 
434 522.32 5.88188123e+02 4.25744457e+00 
435 523.12 5.91602783e+02 4.25122371e+00 
436 523.92 5.96635706e+02 4.46431250e+00 
437 524.72 5.98103333e+02 4.40144708e+00 
438 525.52 5.89821790e+02 4.36476321e+00 
439 526.32 5.76620899e+02 4.04566360e+00 
440 527.12 5.73751733e+02 3.88865689e+00 
441 527.92 5.81652503e+02 3.99529039e+00 
442 528.72 5.96172742e+02 4.37476419e+00 
443 529.52 6.07223487e+02 4.74386894e+00 
444 530.32 6.11612598e+02 4.61907436e+00 
445 531.12 6.10011243e+02 4.59944481e+00 
446 531.92 6.03857251e+02 4.44380078e+00 
447 532.72 5.97079956e+02 4.20078723e+00 
448 533.52 5.94791821e+02 4.35198379e+00 
449 534.32 5.99997034e+02 5.08354953e+00 
450 535.12 6.05380725e+02 4.30188776e+00 
451 535.92 6.06891919e+02 4.58393528e+00 
452 536.72 6.04334815e+02 4.36713068e+00 
453 537.52 6.00890417e+02 4.11115677e+00 
454 538.32 5.96716919e+02 4.03657287e+00 
455 539.12 5.91154028e+02 4.00196197e+00 
456 539.92 5.85332227e+02 4.10557384e+00 
457 540.72 5.82821472e+02 3.88538680e+00 
458 541.52 5.85243652e+02 3.90608336e+00 
