% C0 (TOA Count Rate, /ms) for 4STAR VIS spectrometer (1044 channels) derived from 20160113starsunFORJcorrected1.mat and recorded on 2016-01-22 14:28:58.
% Data outside 2.0x the STD of 501 nm Langley residuals were screened out.
Pix Wavelength C0 C0err
0 173.18 -1.00000000e+00 -1.00000000e+00 
1 173.97 1.73676461e+02 5.21029382e+00 
2 174.77 2.66939741e+02 8.00819223e+00 
3 175.56 3.65690394e+02 1.09707118e+01 
4 176.36 3.43870044e+04 1.03161013e+03 
5 177.15 4.08765371e+04 1.22629611e+03 
6 177.94 4.64608031e+04 1.39382409e+03 
7 178.74 5.17348331e+04 1.55204499e+03 
8 179.53 5.86540244e+04 1.75962073e+03 
9 180.33 6.58973600e+04 1.97692080e+03 
10 181.12 7.53867391e+04 2.26160217e+03 
11 181.92 8.55740781e+04 2.56722234e+03 
12 182.71 9.93055264e+04 2.97916579e+03 
13 183.51 1.11029778e+05 3.33089333e+03 
14 184.30 1.29914399e+05 3.89743196e+03 
15 185.10 1.49572544e+05 4.48717632e+03 
16 185.89 1.76215185e+05 5.28645555e+03 
17 186.69 2.03780684e+05 6.11342051e+03 
18 187.49 2.39870675e+05 7.19612025e+03 
19 188.28 2.70180537e+05 8.10541612e+03 
20 189.08 3.23401441e+05 9.70204322e+03 
21 189.88 3.87294055e+05 1.16188216e+04 
22 190.67 4.69022684e+05 1.40706805e+04 
23 191.47 5.66953930e+05 1.70086179e+04 
24 192.27 7.03265072e+05 2.10979521e+04 
25 193.07 8.58757222e+05 2.57627167e+04 
26 193.86 1.05580910e+06 3.16742730e+04 
27 194.66 1.35668950e+06 4.07006850e+04 
28 195.46 1.67234428e+06 5.01703284e+04 
29 196.26 2.18584381e+06 6.55753144e+04 
30 197.05 2.85213124e+06 8.55639372e+04 
31 197.85 3.75815607e+06 1.12744682e+05 
32 198.65 4.96325640e+06 1.48897692e+05 
33 199.45 6.78483945e+06 2.03545183e+05 
34 200.25 9.23323812e+06 2.76997144e+05 
35 201.05 1.25655686e+07 3.76967058e+05 
36 201.85 1.83618231e+07 5.50854693e+05 
37 202.64 2.64958875e+07 7.94876625e+05 
38 203.44 3.98281348e+07 1.19484405e+06 
39 204.24 6.03296534e+07 1.80988960e+06 
40 205.04 9.43623975e+07 2.83087192e+06 
41 205.84 1.51089088e+08 4.53267263e+06 
42 206.64 2.35484741e+08 7.06454222e+06 
43 207.44 4.04050302e+08 1.21215091e+07 
44 208.24 7.51887675e+08 2.25566302e+07 
45 209.04 1.41639200e+09 4.24917601e+07 
46 209.84 2.88874970e+09 8.66624911e+07 
47 210.64 2.02580395e+09 6.07741185e+07 
48 211.44 1.18454516e+09 3.55363547e+07 
49 212.24 7.08978767e+08 2.12693630e+07 
50 213.05 4.13981550e+08 1.24194465e+07 
51 213.85 2.44861622e+08 7.34584867e+06 
52 214.65 1.45323378e+08 4.35970133e+06 
53 215.45 8.54077617e+07 2.56223285e+06 
54 216.25 5.05984988e+07 1.51795496e+06 
55 217.05 2.99639487e+07 8.98918460e+05 
56 217.85 1.76911145e+07 5.30733435e+05 
57 218.65 1.03864354e+07 3.11593062e+05 
58 219.46 6.20164338e+06 1.86049301e+05 
59 220.26 3.62756100e+06 1.08826830e+05 
60 221.06 2.14499247e+06 6.43497740e+04 
61 221.86 1.27408213e+06 3.82224638e+04 
62 222.66 7.56594096e+05 2.26978229e+04 
63 223.47 4.40940075e+05 1.32282022e+04 
64 224.27 2.64687821e+05 7.94063463e+03 
65 225.07 1.54878249e+05 4.64634746e+03 
66 225.87 9.27514823e+04 2.78254447e+03 
67 226.68 5.48824825e+04 1.64647448e+03 
68 227.48 3.29254006e+04 9.87762017e+02 
69 228.28 2.04038366e+04 6.12115099e+02 
70 229.09 1.38675677e+04 4.16027030e+02 
71 229.89 1.10938771e+04 3.32816312e+02 
72 230.69 1.07602209e+04 3.22806628e+02 
73 231.49 1.36964852e+04 4.10894556e+02 
74 232.30 2.10238610e+04 6.30715830e+02 
75 233.10 3.57983408e+04 1.07395022e+03 
76 233.91 6.39140207e+04 1.91742062e+03 
77 234.71 1.17661062e+05 3.52983186e+03 
78 235.51 2.20203279e+05 6.60609838e+03 
79 236.32 4.08088804e+05 1.22426641e+04 
80 237.12 7.62267603e+05 2.28680281e+04 
81 237.92 1.43072404e+06 4.29217213e+04 
82 238.73 2.67877366e+06 8.03632098e+04 
83 239.53 5.07724162e+06 1.52317248e+05 
84 240.34 9.47726429e+06 2.84317929e+05 
85 241.14 1.75690627e+07 5.27071880e+05 
86 241.94 3.13214151e+07 9.39642453e+05 
87 242.75 5.46604555e+07 1.63981367e+06 
88 243.55 9.49035011e+07 2.84710503e+06 
89 244.36 1.61053697e+08 4.83161090e+06 
90 245.16 2.65072450e+08 7.95217350e+06 
91 245.97 4.14674747e+08 1.24402424e+07 
92 246.77 6.47842396e+08 1.94352719e+07 
93 247.58 9.77511548e+08 2.93253464e+07 
94 248.38 1.42128396e+09 4.26385188e+07 
95 249.19 2.03455436e+09 6.10366308e+07 
96 249.99 2.67191056e+09 8.01573169e+07 
97 250.80 3.34951115e+09 1.00485334e+08 
98 251.60 4.04189143e+09 1.21256743e+08 
99 252.41 4.83905011e+09 1.45171503e+08 
100 253.21 5.37362016e+09 1.61208605e+08 
101 254.02 4.85386401e+09 1.45615920e+08 
102 254.83 4.63736859e+09 1.39121058e+08 
103 255.63 4.78249884e+09 1.43474965e+08 
104 256.44 5.52599038e+09 1.65779711e+08 
105 257.24 4.84645149e+09 1.45393545e+08 
106 258.05 4.19034176e+09 1.25710253e+08 
107 258.85 3.49523843e+09 1.04857153e+08 
108 259.66 2.63518234e+09 7.90554702e+07 
109 260.46 1.88214869e+09 5.64644606e+07 
110 261.27 1.30063566e+09 3.90190698e+07 
111 262.08 8.89164195e+08 2.66749259e+07 
112 262.88 5.59803116e+08 1.67940935e+07 
113 263.69 3.48186462e+08 1.04455939e+07 
114 264.50 2.20207494e+08 6.60622483e+06 
115 265.30 1.34624862e+08 4.03874585e+06 
116 266.11 7.56503085e+07 2.26950926e+06 
117 266.91 4.18880867e+07 1.25664260e+06 
118 267.72 2.22365178e+07 6.67095534e+05 
119 268.53 1.14764278e+07 3.44292834e+05 
120 269.33 5.92232182e+06 1.77669654e+05 
121 270.14 3.26968425e+06 9.80905274e+04 
122 270.95 1.73251876e+06 5.19755629e+04 
123 271.75 9.10234418e+05 2.73070325e+04 
124 272.56 4.58403917e+05 1.37521175e+04 
125 273.37 2.24686378e+05 6.74059133e+03 
126 274.17 1.12377279e+05 3.37131837e+03 
127 274.98 5.71261629e+04 1.71378489e+03 
128 275.79 2.98998169e+04 8.96994507e+02 
129 276.59 1.65028313e+04 4.95084940e+02 
130 277.40 9.04989320e+03 2.71496796e+02 
131 278.21 4.89648992e+03 1.46894698e+02 
132 279.01 2.68565496e+03 8.05696489e+01 
133 279.82 1.50876740e+03 4.52630221e+01 
134 280.63 8.34728230e+02 2.50418469e+01 
135 281.44 4.70371971e+02 1.41111591e+01 
136 282.24 2.83375904e+02 8.50127712e+00 
137 283.05 1.74464557e+02 5.23393672e+00 
138 283.86 1.09550292e+02 3.28650875e+00 
139 284.66 7.15026250e+01 2.14507875e+00 
140 285.47 4.71928363e+01 1.41578509e+00 
141 286.28 3.18617722e+01 9.55853166e-01 
142 287.09 2.26146327e+01 6.78438981e-01 
143 287.89 1.58333260e+01 4.74999779e-01 
144 288.70 1.12753505e+01 3.38260516e-01 
145 289.51 8.47276373e+00 2.54182912e-01 
146 290.32 6.59064074e+00 1.97719222e-01 
147 291.12 5.05857051e+00 1.51757115e-01 
148 291.93 4.01434903e+00 1.20430471e-01 
149 292.74 3.27246882e+00 9.81740647e-02 
150 293.55 2.67995304e+00 8.03985912e-02 
151 294.35 2.21373007e+00 6.64119021e-02 
152 295.16 1.89593759e+00 5.68781278e-02 
153 295.97 1.64217222e+00 4.92651666e-02 
154 296.78 1.42681453e+00 4.28044359e-02 
155 297.58 1.25370428e+00 3.76111285e-02 
156 298.39 1.11886469e+00 3.35659408e-02 
157 299.20 1.01424375e+00 3.04273126e-02 
158 300.01 9.24174425e-01 2.77252328e-02 
159 300.81 8.64703614e-01 2.59411084e-02 
160 301.62 7.87132176e-01 2.36139653e-02 
161 302.43 7.51911535e-01 2.25573461e-02 
162 303.24 7.10664604e-01 2.13199381e-02 
163 304.05 6.75984979e-01 2.02795494e-02 
164 304.85 6.42600141e-01 1.92780042e-02 
165 305.66 6.20029770e-01 1.86008931e-02 
166 306.47 5.96513125e-01 1.78953937e-02 
167 307.28 5.87184897e-01 1.76155469e-02 
168 308.08 5.69561520e-01 1.70868456e-02 
169 308.89 5.55447350e-01 1.66634205e-02 
170 309.70 5.52149977e-01 1.65644993e-02 
171 310.51 5.41562408e-01 1.62468722e-02 
172 311.32 5.27906913e-01 1.58372074e-02 
173 312.12 5.25900680e-01 1.57770204e-02 
174 312.93 5.20698237e-01 1.56209471e-02 
175 313.74 5.19601674e-01 1.55880502e-02 
176 314.55 5.17615157e-01 1.55284547e-02 
177 315.36 5.24764131e-01 1.57429239e-02 
178 316.16 5.25165964e-01 1.57549789e-02 
179 316.97 5.26759931e-01 1.58027979e-02 
180 317.78 5.35852862e-01 1.60755859e-02 
181 318.59 5.40579479e-01 1.62173844e-02 
182 319.39 5.40477021e-01 1.62143106e-02 
183 320.20 5.56618733e-01 1.66985620e-02 
184 321.01 5.68128498e-01 1.70438550e-02 
185 321.82 5.71533388e-01 1.71460016e-02 
186 322.63 5.86022311e-01 1.75806693e-02 
187 323.43 6.00123083e-01 1.80036925e-02 
188 324.24 6.06634094e-01 1.81990228e-02 
189 325.05 6.28729182e-01 1.88618755e-02 
190 325.86 6.42419958e-01 1.92725987e-02 
191 326.67 6.68801665e-01 2.00640499e-02 
192 327.48 6.87612770e-01 2.06283831e-02 
193 328.28 7.08491545e-01 2.12547464e-02 
194 329.09 7.28673251e-01 2.18601975e-02 
195 329.90 7.58903729e-01 2.27671119e-02 
196 330.71 7.95042203e-01 2.38512661e-02 
197 331.51 8.36883847e-01 2.51065154e-02 
198 332.32 9.37754699e-01 2.81326410e-02 
199 333.13 1.08474843e+00 3.25424529e-02 
200 333.94 1.35074256e+00 4.05222769e-02 
201 334.75 1.84107689e+00 5.52323067e-02 
202 335.56 2.55620944e+00 7.66862831e-02 
203 336.36 3.62456629e+00 1.08736989e-01 
204 337.17 5.39140468e+00 1.61742140e-01 
205 337.98 8.03681177e+00 2.41104353e-01 
206 338.79 1.13237133e+01 3.39711398e-01 
207 339.59 1.52542883e+01 4.57628649e-01 
208 340.40 1.89876334e+01 5.69629001e-01 
209 341.21 2.20810883e+01 6.62432648e-01 
210 342.02 2.57835207e+01 7.73505622e-01 
211 342.83 2.92373278e+01 8.77119833e-01 
212 343.64 3.03097999e+01 9.09293996e-01 
213 344.44 3.16169614e+01 9.48508841e-01 
214 345.25 3.54784309e+01 1.06435293e+00 
215 346.06 3.92133683e+01 1.17640105e+00 
216 346.87 4.17565152e+01 1.25269546e+00 
217 347.67 4.36082649e+01 1.30824795e+00 
218 348.48 4.52739385e+01 1.35821816e+00 
219 349.29 4.81187472e+01 1.44356242e+00 
220 350.10 5.30219434e+01 1.59065830e+00 
221 350.91 5.66397740e+01 1.69919322e+00 
222 351.71 5.70784911e+01 1.71235473e+00 
223 352.52 5.81685423e+01 1.74505627e+00 
224 353.33 6.32626796e+01 1.89788039e+00 
225 354.14 7.01188849e+01 2.10356655e+00 
226 354.94 7.35737127e+01 2.20721138e+00 
227 355.75 7.26596142e+01 2.17978843e+00 
228 356.56 6.86262754e+01 2.05878826e+00 
229 357.37 6.45149148e+01 1.93544744e+00 
230 358.18 6.34773528e+01 1.90432059e+00 
231 358.98 7.08996210e+01 2.12698863e+00 
232 359.79 8.24427253e+01 2.47328176e+00 
233 360.60 8.47300269e+01 2.54190081e+00 
234 361.41 8.33282160e+01 2.49984648e+00 
235 362.21 8.76524022e+01 2.62957207e+00 
236 363.02 9.31734204e+01 2.79520261e+00 
237 363.83 9.64646336e+01 2.89393901e+00 
238 364.64 1.01107993e+02 3.03323978e+00 
239 365.44 1.10199977e+02 3.30599932e+00 
240 366.25 1.18574770e+02 3.55724310e+00 
241 367.06 1.20088659e+02 3.60265977e+00 
242 367.87 1.18374821e+02 3.55124464e+00 
243 368.67 1.19832476e+02 3.59497428e+00 
244 369.48 1.25154214e+02 3.75462641e+00 
245 370.29 1.26839716e+02 3.80519147e+00 
246 371.10 1.25609439e+02 3.76828317e+00 
247 371.90 1.22647902e+02 3.67943705e+00 
248 372.71 1.16230961e+02 3.48692884e+00 
249 373.52 1.09716780e+02 3.29150340e+00 
250 374.33 1.08726305e+02 3.26178916e+00 
251 375.13 1.16033756e+02 3.48101269e+00 
252 375.94 1.26640709e+02 3.79922126e+00 
253 376.75 1.37922803e+02 4.13768408e+00 
254 377.55 1.51028902e+02 4.53086705e+00 
255 378.36 1.55593916e+02 4.66781747e+00 
256 379.17 1.48347894e+02 4.45043682e+00 
257 379.98 1.44590208e+02 4.33770623e+00 
258 380.78 1.44513751e+02 4.33541252e+00 
259 381.59 1.32978404e+02 3.98935213e+00 
260 382.40 1.13598655e+02 3.40795964e+00 
261 383.21 1.03773905e+02 3.11321715e+00 
262 384.01 1.11506080e+02 3.34518241e+00 
263 384.82 1.26354617e+02 3.79063850e+00 
264 385.63 1.33439565e+02 4.00318696e+00 
265 386.43 1.34847558e+02 4.04542674e+00 
266 387.24 1.35885342e+02 4.07656026e+00 
267 388.05 1.38183054e+02 4.14549161e+00 
268 388.85 1.46231026e+02 4.38693078e+00 
269 389.66 1.59903450e+02 4.79710350e+00 
270 390.47 1.71518760e+02 5.14556281e+00 
271 391.27 1.73344534e+02 5.20033602e+00 
272 392.08 1.56416686e+02 4.69250059e+00 
273 392.89 1.28071922e+02 3.84215765e+00 
274 393.69 1.19649947e+02 3.58949841e+00 
275 394.50 1.41304696e+02 4.23914089e+00 
276 395.31 1.59773636e+02 4.79320907e+00 
277 396.11 1.51298432e+02 4.53895297e+00 
278 396.92 1.42939998e+02 4.28819994e+00 
279 397.73 1.66528568e+02 4.99585704e+00 
280 398.53 2.06163676e+02 6.18491028e+00 
281 399.34 2.32832322e+02 6.98496966e+00 
282 400.15 2.46081681e+02 7.38245043e+00 
283 400.95 2.55048177e+02 7.65144531e+00 
284 401.76 2.62207258e+02 7.86621773e+00 
285 402.57 2.64728706e+02 7.94186119e+00 
286 403.37 2.63433713e+02 7.90301139e+00 
287 404.18 2.62133946e+02 7.86401839e+00 
288 404.98 2.60993449e+02 7.82980346e+00 
289 405.79 2.59759233e+02 7.79277699e+00 
290 406.60 2.60404371e+02 7.81213114e+00 
291 407.40 2.66339446e+02 7.99018337e+00 
292 408.21 2.76060586e+02 8.28181757e+00 
293 409.02 2.80369724e+02 8.41109173e+00 
294 409.82 2.77628781e+02 8.32886342e+00 
295 410.63 2.80058855e+02 8.40176565e+00 
296 411.44 2.91453333e+02 8.74359999e+00 
297 412.24 3.00237913e+02 9.00713738e+00 
298 413.05 3.01810632e+02 9.05431895e+00 
299 413.85 3.01762039e+02 9.05286118e+00 
300 414.66 3.02487461e+02 9.07462382e+00 
301 415.46 3.03917304e+02 9.11751912e+00 
302 416.27 3.04535210e+02 9.13605629e+00 
303 417.08 3.01505071e+02 9.04515214e+00 
304 417.88 2.96797314e+02 8.90391941e+00 
305 418.69 2.94780614e+02 8.84341842e+00 
306 419.49 2.95989429e+02 8.87968286e+00 
307 420.30 3.00152803e+02 9.00458410e+00 
308 421.11 3.04048222e+02 9.12144665e+00 
309 421.91 3.02766045e+02 9.08298134e+00 
310 422.72 2.98417572e+02 8.95252715e+00 
311 423.52 2.98077712e+02 8.94233135e+00 
312 424.33 3.01411967e+02 9.04235900e+00 
313 425.13 3.03680634e+02 9.11041903e+00 
314 425.94 3.03598067e+02 9.10794202e+00 
315 426.74 3.02704077e+02 9.08112232e+00 
316 427.55 3.01481349e+02 9.04444047e+00 
317 428.35 2.96979705e+02 8.90939116e+00 
318 429.16 2.85078874e+02 8.55236622e+00 
319 429.96 2.71879541e+02 8.15638622e+00 
320 430.77 2.76117508e+02 8.28352524e+00 
321 431.58 3.01844676e+02 9.05534027e+00 
322 432.38 3.30500388e+02 9.91501163e+00 
323 433.19 3.44625987e+02 1.03387796e+01 
324 433.99 3.50842990e+02 1.05252897e+01 
325 434.80 3.62387102e+02 1.08716131e+01 
326 435.60 3.79679731e+02 1.13903919e+01 
327 436.41 3.91820664e+02 1.17546199e+01 
328 437.21 3.91448452e+02 1.17434536e+01 
329 438.02 3.85206573e+02 1.15561972e+01 
330 438.82 3.84857300e+02 1.15457190e+01 
331 439.63 3.93973677e+02 1.18192103e+01 
332 440.43 4.09244701e+02 1.22773410e+01 
333 441.24 4.25304323e+02 1.27591297e+01 
334 442.04 4.39700691e+02 1.31910207e+01 
335 442.84 4.49777208e+02 1.34933162e+01 
336 443.65 4.55328480e+02 1.36598544e+01 
337 444.45 4.56976163e+02 1.37092849e+01 
338 445.26 4.56132542e+02 1.36839763e+01 
339 446.06 4.58697127e+02 1.37609138e+01 
340 446.87 4.67734544e+02 1.40320363e+01 
341 447.67 4.80371569e+02 1.44111471e+01 
342 448.48 4.90701426e+02 1.47210428e+01 
343 449.28 4.99991668e+02 1.49997501e+01 
344 450.09 5.10099533e+02 1.53029860e+01 
345 450.89 5.16226678e+02 1.54868003e+01 
346 451.69 5.12370684e+02 1.53711205e+01 
347 452.50 5.02699154e+02 1.50809746e+01 
348 453.30 4.97226108e+02 1.49167833e+01 
349 454.11 4.99246450e+02 1.49773935e+01 
350 454.91 5.06926707e+02 1.52078012e+01 
351 455.72 5.15486759e+02 1.54646028e+01 
352 456.52 5.22438488e+02 1.56731546e+01 
353 457.32 5.25637032e+02 1.57691110e+01 
354 458.13 5.24697775e+02 1.57409332e+01 
355 458.93 5.23597979e+02 1.57079394e+01 
356 459.74 5.26327069e+02 1.57898121e+01 
357 460.54 5.32943747e+02 1.59883124e+01 
358 461.34 5.40565739e+02 1.62169722e+01 
359 462.15 5.45905302e+02 1.63771591e+01 
360 462.95 5.46487502e+02 1.63946251e+01 
361 463.76 5.43333422e+02 1.63000027e+01 
362 464.56 5.39746475e+02 1.61923942e+01 
363 465.36 5.37031160e+02 1.61109348e+01 
364 466.17 5.35685959e+02 1.60705788e+01 
365 466.97 5.36262551e+02 1.60878765e+01 
366 467.77 5.38712187e+02 1.61613656e+01 
367 468.58 5.41774727e+02 1.62532418e+01 
368 469.38 5.42906239e+02 1.62871872e+01 
369 470.18 5.43893400e+02 1.63168020e+01 
370 470.99 5.49038033e+02 1.64711410e+01 
371 471.79 5.56972301e+02 1.67091690e+01 
372 472.59 5.64466892e+02 1.69340068e+01 
373 473.40 5.69804242e+02 1.70941273e+01 
374 474.20 5.73109949e+02 1.71932985e+01 
375 475.00 5.75238999e+02 1.72571700e+01 
376 475.81 5.77007884e+02 1.73102365e+01 
377 476.61 5.80128067e+02 1.74038420e+01 
378 477.41 5.85685580e+02 1.75705674e+01 
379 478.21 5.91529664e+02 1.77458899e+01 
380 479.02 5.95668309e+02 1.78700493e+01 
381 479.82 5.97942123e+02 1.79382637e+01 
382 480.62 6.00384647e+02 1.80115394e+01 
383 481.43 6.01633110e+02 1.80489933e+01 
384 482.23 6.00539798e+02 1.80161939e+01 
385 483.03 5.96152730e+02 1.78845819e+01 
386 483.84 5.86351707e+02 1.75905512e+01 
387 484.64 5.68009714e+02 1.70402914e+01 
388 485.44 5.45780143e+02 1.63734043e+01 
389 486.24 5.32284971e+02 1.59685491e+01 
390 487.05 5.33740968e+02 1.60122291e+01 
391 487.85 5.48091983e+02 1.64427595e+01 
392 488.65 5.66224108e+02 1.69867232e+01 
393 489.45 5.78832883e+02 1.73649865e+01 
394 490.26 5.83261438e+02 1.74978432e+01 
395 491.06 5.81678219e+02 1.74503466e+01 
396 491.86 5.77823904e+02 1.73347171e+01 
397 492.66 5.77035361e+02 1.73110608e+01 
398 493.46 5.81985281e+02 1.74595584e+01 
399 494.27 5.88595525e+02 1.76578657e+01 
400 495.07 5.92690176e+02 1.77807053e+01 
401 495.87 5.94688964e+02 1.78406689e+01 
402 496.67 5.92781307e+02 1.77834392e+01 
403 497.48 5.88520058e+02 1.76556017e+01 
404 498.28 5.83841227e+02 1.75152368e+01 
405 499.08 5.78093026e+02 1.73427908e+01 
406 499.88 5.71967835e+02 1.71590351e+01 
407 500.68 5.66824376e+02 1.70047313e+01 
408 501.48 5.64081245e+02 1.69224373e+01 
409 502.29 5.65476750e+02 1.69643025e+01 
410 503.09 5.69249748e+02 1.70774924e+01 
411 503.89 5.74445474e+02 1.72333642e+01 
412 504.69 5.80484604e+02 1.74145381e+01 
413 505.49 5.85345884e+02 1.75603765e+01 
414 506.29 5.86923966e+02 1.76077190e+01 
415 507.09 5.84873918e+02 1.75462175e+01 
416 507.90 5.81888866e+02 1.74566660e+01 
417 508.70 5.80447682e+02 1.74134305e+01 
418 509.50 5.80866473e+02 1.74259942e+01 
419 510.30 5.82006885e+02 1.74602065e+01 
420 511.10 5.81067172e+02 1.74320152e+01 
421 511.90 5.77385460e+02 1.73215638e+01 
422 512.70 5.71427890e+02 1.71428367e+01 
423 513.51 5.64738551e+02 1.69421565e+01 
424 514.31 5.59014778e+02 1.67704433e+01 
425 515.11 5.50816425e+02 1.65244927e+01 
426 515.91 5.37315933e+02 1.61194780e+01 
427 516.71 5.23305447e+02 1.56991634e+01 
428 517.51 5.14719503e+02 1.54415851e+01 
429 518.31 5.17102374e+02 1.55130712e+01 
430 519.11 5.28948172e+02 1.58684452e+01 
431 519.91 5.41815588e+02 1.62544676e+01 
432 520.71 5.51562692e+02 1.65468808e+01 
433 521.51 5.55778617e+02 1.66733585e+01 
434 522.32 5.57812970e+02 1.67343891e+01 
435 523.12 5.61399407e+02 1.68419822e+01 
436 523.92 5.65145897e+02 1.69543769e+01 
437 524.72 5.65263962e+02 1.69579189e+01 
438 525.52 5.58525814e+02 1.67557744e+01 
439 526.32 5.49506892e+02 1.64852068e+01 
440 527.12 5.47252475e+02 1.64175742e+01 
441 527.92 5.53866115e+02 1.66159835e+01 
442 528.72 5.66086291e+02 1.69825887e+01 
443 529.52 5.77375205e+02 1.73212562e+01 
444 530.32 5.82614174e+02 1.74784252e+01 
445 531.12 5.80937473e+02 1.74281242e+01 
446 531.92 5.75694952e+02 1.72708486e+01 
447 532.72 5.70532249e+02 1.71159675e+01 
448 533.52 5.69319867e+02 1.70795960e+01 
449 534.32 5.72990086e+02 1.71897026e+01 
450 535.12 5.77358109e+02 1.73207433e+01 
451 535.92 5.78422760e+02 1.73526828e+01 
452 536.72 5.77259570e+02 1.73177871e+01 
453 537.52 5.74878648e+02 1.72463594e+01 
454 538.32 5.71328083e+02 1.71398425e+01 
455 539.12 5.66828433e+02 1.70048530e+01 
456 539.92 5.62538524e+02 1.68761557e+01 
457 540.72 5.60671978e+02 1.68201593e+01 
458 541.52 5.62089543e+02 1.68626863e+01 
459 542.32 5.66328889e+02 1.69898667e+01 
460 543.12 5.70717460e+02 1.71215238e+01 
461 543.92 5.73813604e+02 1.72144081e+01 
462 544.72 5.75676670e+02 1.72703001e+01 
463 545.52 5.75458314e+02 1.72637494e+01 
464 546.31 5.72908584e+02 1.71872575e+01 
465 547.12 5.69792852e+02 1.70937856e+01 
466 547.91 5.68055412e+02 1.70416624e+01 
467 548.71 5.67725779e+02 1.70317734e+01 
468 549.51 5.68143729e+02 1.70443119e+01 
469 550.31 5.68035365e+02 1.70410609e+01 
470 551.11 5.67457869e+02 1.70237361e+01 
471 551.91 5.67077251e+02 1.70123175e+01 
