% C0 (TOA Count Rate, /ms) for 4STAR NIR spectrometer (512 channels) derived from (SEE Original files for sources) and recorded on 2017-06-12 14:08:10.
% Langley at MLO and airborne Data outside 2.0x the STD of 501 nm Langley residuals were screened out. 
% Including high Altitude rate spectra, matched to splined stratospheric AOD measured at MLO.
% Averages of c0 from multiple days including: , infl-ig-ht, MLO -av-g-, infl-ig-ht. See the list of files below
% 20160825_NIR_C0_refined_Langley_ORACLES_transit2.dat
% 20161115_NIR_C0_refined_Langley_Nov2016part1.5incl1115_good_mean.dat
% 20160924_NIR_C0_refined_Langley_airborne_ORACLES_v1.dat
Pix Wavelength C0 C0err
511 949.79 5.37072428e+00 8.01370589e-01 
510 949.79 5.65827942e+00 5.71863303e-01 
509 951.68 6.04450020e+00 5.58885935e-01 
508 953.57 6.08864869e+00 5.41279315e-01 
507 955.46 6.54682956e+00 5.16352412e-01 
506 957.34 6.62949361e+00 4.71431803e-01 
505 959.22 7.10185832e+00 4.27281760e-01 
504 961.10 7.15043996e+00 3.30754634e-01 
503 962.98 7.57602539e+00 2.71239355e-01 
502 964.85 7.55101392e+00 1.95156860e-01 
501 966.72 8.04464562e+00 1.15844040e-01 
500 968.59 8.06270263e+00 5.30722375e-02 
499 970.45 8.44272437e+00 3.26361356e-02 
498 972.32 8.41971339e+00 6.42266090e-02 
497 974.18 8.75149686e+00 6.50023949e-02 
496 976.04 8.66930703e+00 4.38003736e-02 
495 977.89 8.99518921e+00 6.53715543e-03 
494 979.74 8.88119370e+00 4.36056137e-02 
493 981.59 9.16421304e+00 6.51879426e-02 
492 983.44 9.03799392e+00 9.92271059e-02 
491 985.29 9.26813956e+00 1.30763773e-01 
490 987.13 9.07431108e+00 1.47610371e-01 
489 988.97 9.30183443e+00 1.88399838e-01 
488 990.81 9.12485499e+00 1.60915612e-01 
487 992.65 9.29318036e+00 1.77402741e-01 
486 994.48 9.10212685e+00 1.74278588e-01 
485 996.31 9.24565605e+00 1.70042711e-01 
484 998.14 9.00660828e+00 1.51532475e-01 
483 999.97 9.15455528e+00 1.74049888e-01 
482 1001.79 8.88398859e+00 1.66848217e-01 
481 1003.62 8.95870155e+00 1.97987814e-01 
480 1005.44 8.76293290e+00 1.79585472e-01 
479 1007.25 8.99382524e+00 2.00255822e-01 
478 1009.07 8.79170932e+00 1.87860264e-01 
477 1010.88 8.93798069e+00 2.02584237e-01 
476 1012.69 8.67633847e+00 1.75379410e-01 
475 1014.50 8.79471275e+00 1.62670855e-01 
474 1016.31 8.57038121e+00 1.56962081e-01 
473 1018.11 8.71504751e+00 1.65262458e-01 
472 1019.91 8.46000767e+00 1.78073842e-01 
471 1021.71 8.62374430e+00 1.75564091e-01 
470 1023.51 8.39749733e+00 1.68424648e-01 
469 1025.30 8.54509022e+00 1.75677407e-01 
468 1027.09 8.44086624e+00 1.51540980e-01 
467 1028.88 8.57380014e+00 1.56705298e-01 
466 1030.67 8.42884907e+00 1.29695307e-01 
465 1032.46 8.58967721e+00 1.32502107e-01 
464 1034.24 8.43414320e+00 1.46216569e-01 
463 1036.02 8.63308434e+00 1.43701353e-01 
462 1037.80 8.49694249e+00 1.61550503e-01 
461 1039.58 8.70433005e+00 1.60892518e-01 
460 1041.35 8.55421011e+00 1.49946172e-01 
459 1043.12 8.72836906e+00 1.39993792e-01 
458 1044.89 8.64504275e+00 1.58018644e-01 
457 1046.66 8.85321843e+00 1.86082813e-01 
456 1048.43 8.80709921e+00 1.68026488e-01 
455 1050.19 9.03704938e+00 1.82727268e-01 
454 1051.95 8.91580227e+00 1.74357588e-01 
453 1053.71 9.16158073e+00 1.73364689e-01 
452 1055.47 8.99561007e+00 1.53281822e-01 
451 1057.23 9.12121160e+00 1.61865064e-01 
450 1058.98 8.98497754e+00 1.15324537e-01 
449 1060.73 9.14618681e+00 1.47443068e-01 
448 1062.48 8.93994944e+00 1.75175110e-01 
447 1064.23 9.07577439e+00 1.78132136e-01 
446 1065.97 8.79467714e+00 1.84631557e-01 
445 1067.71 8.82565408e+00 1.95384839e-01 
444 1069.46 8.63360788e+00 1.75784667e-01 
443 1071.19 8.74312686e+00 1.46183942e-01 
442 1072.93 8.59633980e+00 1.29756500e-01 
441 1074.67 8.68112215e+00 1.51702238e-01 
440 1076.40 8.47862724e+00 1.45063575e-01 
439 1078.13 8.50270145e+00 1.69999225e-01 
438 1079.86 8.29207806e+00 1.38267491e-01 
437 1081.58 8.35169733e+00 1.42981196e-01 
436 1083.31 8.24508175e+00 1.14691282e-01 
435 1085.03 8.42223389e+00 1.13617156e-01 
434 1086.75 8.37224508e+00 9.28794749e-02 
433 1088.47 8.52120544e+00 9.80844179e-02 
432 1090.19 8.43692153e+00 7.93615255e-02 
431 1091.90 8.54669129e+00 8.08730238e-02 
430 1093.61 8.42843750e+00 6.46398301e-02 
429 1095.33 8.64755053e+00 6.41703655e-02 
428 1097.03 8.69090636e+00 3.21207337e-02 
427 1098.74 8.96007568e+00 2.89499936e-02 
426 1100.45 9.00146985e+00 2.26025659e-02 
425 1102.15 9.30242328e+00 1.91467512e-02 
424 1103.85 9.31860534e+00 5.59188302e-02 
423 1105.55 9.57953667e+00 1.23344795e-01 
422 1107.25 9.53242563e+00 2.23347336e-01 
421 1108.94 9.73002554e+00 3.71183448e-01 
420 1110.64 9.58557420e+00 5.66703984e-01 
419 1112.33 9.71124424e+00 9.25304277e-01 
418 1114.02 9.50900213e+00 1.36530427e+00 
417 1115.70 9.60390713e+00 1.67901971e+00 
416 1117.39 9.41510160e+00 1.81853792e+00 
415 1119.07 9.48412859e+00 2.01723092e+00 
414 1120.76 9.39649942e+00 2.12229580e+00 
413 1122.44 9.53738035e+00 2.32514193e+00 
412 1124.12 9.47019412e+00 2.26951767e+00 
411 1125.79 9.61909051e+00 2.10327591e+00 
410 1127.47 9.59364688e+00 1.82207186e+00 
409 1129.14 9.81461467e+00 1.58881726e+00 
408 1130.81 9.58652290e+00 1.94893611e+00 
407 1132.48 9.58278106e+00 2.18315372e+00 
406 1134.15 9.44250213e+00 2.15747340e+00 
405 1135.81 9.54830273e+00 1.71690973e+00 
404 1137.48 9.72597243e+00 1.06933106e+00 
403 1139.14 9.92333222e+00 9.11888211e-01 
402 1140.80 9.72096803e+00 1.07470365e+00 
401 1142.46 9.78473246e+00 1.36480120e+00 
400 1144.12 9.54899099e+00 1.53050566e+00 
399 1145.77 9.61411076e+00 1.63859128e+00 
398 1147.43 9.52395470e+00 1.51498859e+00 
397 1149.08 9.63876641e+00 1.33474450e+00 
396 1150.73 9.58638672e+00 1.26785282e+00 
395 1152.38 9.76150301e+00 1.08362861e+00 
394 1154.02 9.66050400e+00 9.29736377e-01 
393 1155.67 9.80605210e+00 7.28527857e-01 
392 1157.31 9.63189993e+00 5.93150765e-01 
391 1158.95 9.66041356e+00 4.17275687e-01 
390 1160.59 9.55869135e+00 2.92848625e-01 
389 1162.23 9.67969089e+00 1.61329466e-01 
388 1163.87 9.54669788e+00 8.31546744e-02 
387 1165.50 9.58765358e+00 5.28876312e-02 
386 1167.13 9.46842782e+00 3.69638922e-02 
385 1168.76 9.53975163e+00 4.00312470e-02 
384 1170.39 9.43356504e+00 6.93305266e-02 
383 1172.02 9.41261018e+00 6.12344338e-02 
382 1173.65 9.22614334e+00 5.78981568e-02 
381 1175.27 9.22155549e+00 7.91470272e-02 
380 1176.90 9.08394864e+00 6.13828372e-02 
379 1178.52 9.06147165e+00 1.13988012e-01 
378 1180.14 8.84217054e+00 1.04761250e-01 
377 1181.75 8.84702891e+00 1.31070797e-01 
376 1183.37 8.66576428e+00 1.28164620e-01 
375 1184.99 8.67005581e+00 1.11952624e-01 
374 1186.60 8.54172424e+00 7.50981466e-02 
373 1188.21 8.49044575e+00 3.03766445e-02 
372 1189.82 8.39223941e+00 3.51070434e-02 
371 1191.43 8.57092082e+00 6.34037922e-02 
370 1193.04 8.46865321e+00 5.65576798e-02 
369 1194.64 8.45691225e+00 5.78642419e-02 
368 1196.24 8.29412888e+00 2.86482291e-02 
367 1197.85 8.34967817e+00 9.84252453e-03 
366 1199.45 8.25001787e+00 1.63478764e-02 
365 1201.05 8.32877165e+00 1.57733914e-02 
364 1202.64 8.24705214e+00 1.00039897e-02 
363 1204.24 8.28007524e+00 2.33445600e-02 
362 1205.83 8.20861864e+00 7.29595036e-02 
361 1207.43 8.21927462e+00 6.88632146e-02 
360 1209.02 8.14888578e+00 5.47279344e-02 
359 1210.61 8.27010663e+00 4.42976544e-02 
358 1212.19 8.24724628e+00 4.58756515e-02 
357 1213.78 8.37742594e+00 8.80936047e-02 
356 1215.37 8.30341225e+00 7.87827631e-02 
355 1216.95 8.35202690e+00 8.46451731e-02 
354 1218.53 8.31460661e+00 8.84806383e-02 
353 1220.11 8.37285283e+00 1.15162275e-01 
352 1221.69 8.34402703e+00 9.03363048e-02 
351 1223.27 8.37215967e+00 1.00442350e-01 
350 1224.84 8.36697723e+00 9.42887415e-02 
349 1226.42 8.38875690e+00 1.23942247e-01 
348 1227.99 8.36503469e+00 1.04393828e-01 
347 1229.56 8.49570891e+00 8.57276413e-02 
346 1231.13 8.41490957e+00 8.79444758e-02 
345 1232.70 8.45832428e+00 1.13014901e-01 
344 1234.27 8.41526723e+00 1.21413594e-01 
343 1235.84 8.42667529e+00 1.12191143e-01 
342 1237.40 8.35638891e+00 1.46780186e-01 
341 1238.96 8.35297288e+00 1.63280898e-01 
340 1240.52 8.19622626e+00 1.59400017e-01 
339 1242.08 8.30935002e+00 1.77925373e-01 
338 1243.64 8.29070151e+00 1.48174043e-01 
337 1245.20 8.31525100e+00 1.64535636e-01 
336 1246.75 8.30190515e+00 1.31772783e-01 
335 1248.31 8.37415814e+00 1.29769808e-01 
334 1249.86 8.30548835e+00 1.28697683e-01 
333 1251.41 8.34319214e+00 1.30788577e-01 
332 1252.96 8.25448534e+00 1.44509750e-01 
331 1254.51 8.30578610e+00 1.11834996e-01 
330 1256.06 8.24281637e+00 8.43899830e-02 
329 1257.61 8.21781366e+00 6.35038868e-02 
328 1259.15 8.11872869e+00 6.45156180e-02 
327 1260.69 8.11027383e+00 4.07197180e-02 
326 1262.23 8.01273585e+00 5.44841780e-02 
325 1263.77 8.01508854e+00 4.72893168e-02 
324 1265.31 7.90388910e+00 6.37387388e-02 
323 1266.85 7.92857795e+00 7.92073992e-02 
322 1268.39 7.93515346e+00 5.80397097e-02 
321 1269.92 8.03631368e+00 3.45790453e-02 
320 1271.46 8.14094631e+00 4.69507764e-02 
319 1272.99 8.16419195e+00 7.55660245e-02 
318 1274.52 8.13896893e+00 8.37003753e-02 
317 1276.05 8.18424550e+00 1.04503245e-01 
316 1277.58 8.02905037e+00 9.86732218e-02 
315 1279.10 7.87134812e+00 1.07866808e-01 
314 1280.63 7.82480280e+00 1.16153190e-01 
313 1282.15 7.81134339e+00 1.31927737e-01 
312 1283.68 7.92638784e+00 1.16510857e-01 
311 1285.20 8.08253242e+00 1.52153025e-01 
310 1286.72 8.06253448e+00 1.22586231e-01 
309 1288.24 8.07997581e+00 1.12849119e-01 
308 1289.75 7.97417075e+00 1.32989917e-01 
307 1291.27 7.99454332e+00 1.27653843e-01 
306 1292.78 8.02879679e+00 1.17214548e-01 
305 1294.30 8.04517963e+00 1.11270709e-01 
304 1295.81 7.97416127e+00 1.07880235e-01 
303 1297.32 7.96364150e+00 9.51838839e-02 
302 1298.83 7.91366252e+00 8.73746346e-02 
301 1300.34 7.87273232e+00 7.11929092e-02 
300 1301.85 7.83860626e+00 4.70180486e-02 
299 1303.35 7.80204764e+00 5.72349108e-02 
298 1304.86 7.74028086e+00 9.29588154e-02 
297 1306.36 7.71894127e+00 9.10742122e-02 
296 1307.86 7.67209329e+00 8.34909457e-02 
295 1309.36 7.59256611e+00 7.21967311e-02 
294 1310.86 7.52333672e+00 1.17204885e-01 
293 1312.36 7.44109831e+00 1.16359725e-01 
292 1313.86 7.40095619e+00 1.73411528e-01 
291 1315.36 7.39904227e+00 1.73598898e-01 
290 1316.85 7.35595076e+00 1.93221820e-01 
289 1318.34 7.32392982e+00 1.90117512e-01 
288 1319.84 7.30236584e+00 2.20375385e-01 
287 1321.33 7.33523313e+00 2.18524120e-01 
286 1322.82 7.27041415e+00 1.70496590e-01 
285 1324.30 7.29123150e+00 2.32018089e-01 
284 1325.79 7.17933988e+00 3.19760292e-01 
283 1327.28 7.09656044e+00 4.18835513e-01 
282 1328.76 6.96828310e+00 5.49939605e-01 
281 1330.25 6.93029937e+00 6.07810805e-01 
280 1331.73 6.86148766e+00 5.96599478e-01 
279 1333.21 6.85625244e+00 5.91102425e-01 
278 1334.69 6.84859157e+00 5.92546922e-01 
277 1336.17 6.77011114e+00 5.42484782e-01 
276 1337.65 6.71637914e+00 6.05492819e-01 
275 1339.12 6.62099814e+00 5.67131438e-01 
274 1340.60 6.58644704e+00 7.35717198e-01 
273 1342.07 6.53418589e+00 9.00604375e-01 
272 1343.55 6.43159115e+00 1.11357959e+00 
271 1345.02 6.21638719e+00 1.55711621e+00 
270 1346.49 6.08045436e+00 1.80799789e+00 
269 1347.96 5.97350387e+00 2.19641060e+00 
268 1349.43 5.82136688e+00 2.55281939e+00 
267 1350.89 5.68484907e+00 2.90145673e+00 
266 1352.36 5.56380133e+00 3.63680633e+00 
265 1353.82 5.46210957e+00 3.85710417e+00 
264 1355.29 5.49629395e+00 4.58781035e+00 
263 1356.75 5.63308707e+00 4.89922361e+00 
262 1358.21 5.71432843e+00 5.65983374e+00 
261 1359.67 5.84504958e+00 6.43724025e+00 
260 1361.13 5.99076656e+00 6.90293676e+00 
259 1362.59 5.77999706e+00 6.55508382e+00 
258 1364.04 5.56523464e+00 5.92166311e+00 
257 1365.50 5.63596400e+00 5.98696211e+00 
256 1366.95 5.51952175e+00 6.04510155e+00 
255 1368.41 5.61736316e+00 6.27635761e+00 
254 1369.86 5.48512580e+00 5.90670662e+00 
253 1371.31 4.97280067e+00 4.71539080e+00 
252 1372.76 4.55137830e+00 4.14223677e+00 
251 1374.21 4.22345700e+00 3.21985207e+00 
250 1375.65 3.86993059e+00 2.79529632e+00 
249 1377.10 3.55487498e+00 2.57836498e+00 
248 1378.55 3.32287931e+00 2.73819754e+00 
247 1379.99 3.18386959e+00 2.89416420e+00 
246 1381.43 3.36936041e+00 3.59489140e+00 
245 1382.87 3.52616144e+00 3.65806928e+00 
244 1384.32 3.40126185e+00 3.27384354e+00 
243 1385.75 3.42196676e+00 2.87302538e+00 
242 1387.19 3.39074413e+00 2.36439323e+00 
241 1388.63 3.28098972e+00 2.15659319e+00 
240 1390.07 3.41690691e+00 2.12134537e+00 
239 1391.50 3.49513952e+00 2.32764259e+00 
238 1392.94 3.52113032e+00 3.04968930e+00 
237 1394.37 3.63425611e+00 2.96801603e+00 
236 1395.80 3.68267948e+00 2.81813625e+00 
235 1397.23 3.75279800e+00 2.95379283e+00 
234 1398.66 3.72091021e+00 2.90186358e+00 
233 1400.09 3.86933856e+00 2.70695170e+00 
232 1401.52 3.96698081e+00 3.11399234e+00 
231 1402.94 4.02941697e+00 2.89159534e+00 
230 1404.37 4.01007438e+00 2.88808895e+00 
229 1405.79 4.09112184e+00 2.91748663e+00 
228 1407.22 4.04265407e+00 2.94837944e+00 
227 1408.64 4.12897099e+00 2.64827401e+00 
226 1410.06 4.09987331e+00 2.56939312e+00 
225 1411.48 4.16383129e+00 2.42755679e+00 
224 1412.90 4.11263395e+00 2.34785463e+00 
223 1414.32 4.18771194e+00 2.05044974e+00 
222 1415.73 4.27904262e+00 2.20799909e+00 
221 1417.15 4.31002154e+00 2.16616169e+00 
220 1418.56 4.37064931e+00 2.06399706e+00 
219 1419.98 4.35928254e+00 2.11807739e+00 
218 1421.39 4.36558310e+00 1.92283452e+00 
217 1422.80 4.36746195e+00 1.64226284e+00 
216 1424.21 4.39305669e+00 1.62899392e+00 
215 1425.62 4.36360681e+00 1.61989655e+00 
214 1427.03 4.35813298e+00 1.46960697e+00 
213 1428.44 4.18166067e+00 1.41915545e+00 
212 1429.84 4.09523380e+00 1.49052047e+00 
211 1431.25 3.99780045e+00 1.30307836e+00 
210 1432.65 4.02331708e+00 1.35092360e+00 
209 1434.06 4.09191948e+00 1.38313788e+00 
208 1435.46 4.17962186e+00 1.34186070e+00 
207 1436.86 4.20170963e+00 1.31625588e+00 
206 1438.26 4.20090260e+00 1.26804434e+00 
205 1439.66 4.21967212e+00 1.20910520e+00 
204 1441.05 4.28527699e+00 1.09834309e+00 
203 1442.45 4.22724951e+00 1.10514549e+00 
202 1443.85 4.25303443e+00 1.12595480e+00 
201 1445.24 4.26229398e+00 1.01378209e+00 
200 1446.64 4.30720886e+00 1.05912084e+00 
199 1448.03 4.29085659e+00 1.14932365e+00 
198 1449.42 4.34575207e+00 1.08461333e+00 
197 1450.81 4.32379029e+00 1.02864050e+00 
196 1452.20 4.30487922e+00 9.23394600e-01 
195 1453.59 4.36073104e+00 6.40124147e-01 
194 1454.97 4.45813059e+00 4.96515666e-01 
193 1456.36 4.44631451e+00 4.44858255e-01 
192 1457.75 4.50770402e+00 4.70104408e-01 
191 1459.13 4.46150139e+00 4.83025650e-01 
190 1460.51 4.46776406e+00 5.84435966e-01 
189 1461.90 4.36600918e+00 6.56290803e-01 
188 1463.28 4.36946868e+00 7.79194106e-01 
187 1464.66 4.28778310e+00 8.30476956e-01 
186 1466.04 4.31332926e+00 8.55100700e-01 
185 1467.41 4.25711436e+00 9.75945113e-01 
184 1468.79 4.21696678e+00 1.00001628e+00 
183 1470.17 4.14888783e+00 9.68877905e-01 
182 1471.54 4.16966213e+00 9.47287042e-01 
181 1472.92 4.18383590e+00 8.33237973e-01 
180 1474.29 4.24243646e+00 7.15525313e-01 
179 1475.66 4.20948379e+00 6.50582554e-01 
178 1477.03 4.18707417e+00 7.09032681e-01 
177 1478.40 4.17063434e+00 7.55852834e-01 
176 1479.77 4.20870347e+00 7.23211739e-01 
175 1481.14 4.15582636e+00 6.32952246e-01 
174 1482.51 4.22610402e+00 5.91128718e-01 
173 1483.87 4.16862922e+00 5.38267330e-01 
172 1485.24 4.11917503e+00 4.91342604e-01 
171 1486.60 4.05606370e+00 4.48245836e-01 
170 1487.96 4.10347616e+00 4.20492435e-01 
169 1489.32 4.05246416e+00 3.20095703e-01 
168 1490.68 4.19238464e+00 2.82109232e-01 
167 1492.04 4.16534363e+00 2.17735501e-01 
166 1493.40 4.20887592e+00 2.06675715e-01 
165 1494.76 4.17996830e+00 1.80539090e-01 
164 1496.12 4.20636142e+00 1.55066694e-01 
163 1497.47 4.14720554e+00 9.66276919e-02 
162 1498.83 4.21698481e+00 7.76139824e-02 
161 1500.18 4.06606846e+00 7.84841728e-02 
160 1501.53 4.00234833e+00 9.38374537e-02 
159 1502.89 3.89061242e+00 8.48945645e-02 
158 1504.24 3.91912022e+00 9.51785218e-02 
157 1505.59 3.94235143e+00 8.37272500e-02 
156 1506.93 4.05230067e+00 4.86804217e-02 
155 1508.28 4.06818552e+00 2.95228057e-02 
154 1509.63 4.09574042e+00 1.70925344e-02 
153 1510.97 4.03365551e+00 1.82556806e-02 
152 1512.32 4.08657789e+00 3.71704754e-02 
151 1513.66 4.00796066e+00 3.14029032e-02 
150 1515.00 4.05225381e+00 2.62462670e-02 
149 1516.34 4.01090291e+00 4.15860355e-02 
148 1517.69 4.03953030e+00 4.23644091e-02 
147 1519.02 3.96758524e+00 6.02461809e-02 
146 1520.36 3.97519542e+00 7.40901692e-02 
145 1521.70 3.93011997e+00 7.31596631e-02 
144 1523.04 4.00188600e+00 7.16731606e-02 
143 1524.37 3.95042338e+00 8.54371918e-02 
142 1525.71 4.00084966e+00 8.15821121e-02 
141 1527.04 3.91872283e+00 8.93399422e-02 
140 1528.37 3.95469389e+00 6.72164974e-02 
139 1529.70 3.88788301e+00 5.25224193e-02 
138 1531.03 3.91107667e+00 6.69479238e-02 
137 1532.36 3.86132565e+00 5.44516353e-02 
136 1533.69 3.89100519e+00 5.89460781e-02 
135 1535.02 3.80122518e+00 6.42955878e-02 
134 1536.34 3.83039646e+00 6.64846056e-02 
133 1537.67 3.74581923e+00 7.71982637e-02 
132 1538.99 3.80260021e+00 3.95220114e-02 
131 1540.31 3.73728388e+00 5.18336814e-02 
130 1541.64 3.77412013e+00 6.46581617e-02 
129 1542.96 3.74122482e+00 6.04027506e-02 
128 1544.28 3.78447798e+00 6.01788166e-02 
127 1545.60 3.69913237e+00 8.27066639e-02 
126 1546.91 3.74673820e+00 7.45013123e-02 
125 1548.23 3.65126674e+00 8.07774932e-02 
124 1549.55 3.68133482e+00 7.97694656e-02 
123 1550.86 3.60143890e+00 8.39611147e-02 
122 1552.18 3.63018481e+00 6.90408531e-02 
121 1553.49 3.55144659e+00 9.62628791e-02 
120 1554.80 3.61262611e+00 7.21181965e-02 
119 1556.11 3.54185235e+00 6.58158185e-02 
118 1557.42 3.58623553e+00 5.46144067e-02 
117 1558.73 3.51441151e+00 5.78390012e-02 
116 1560.04 3.54321592e+00 3.69999865e-02 
115 1561.34 3.45698654e+00 3.72996301e-02 
114 1562.65 3.51296325e+00 2.67666840e-02 
113 1563.95 3.43088743e+00 3.37951296e-02 
112 1565.26 3.48876454e+00 3.30770942e-02 
111 1566.56 3.37246599e+00 4.85771126e-02 
110 1567.86 3.40401642e+00 4.04071597e-02 
109 1569.16 3.31234775e+00 4.31177393e-02 
108 1570.46 3.32663282e+00 3.44831048e-02 
107 1571.76 3.22767785e+00 3.26838847e-02 
106 1573.05 3.20892002e+00 3.41784342e-02 
105 1574.35 3.08736783e+00 4.32459595e-02 
104 1575.64 3.11379424e+00 4.59355310e-02 
103 1576.94 3.07441491e+00 3.92771595e-02 
102 1578.23 3.15398381e+00 1.77376538e-02 
101 1579.52 3.10824564e+00 2.13882582e-02 
100 1580.81 3.16955972e+00 2.14909146e-02 
99 1582.10 3.09659316e+00 2.37886775e-02 
98 1583.39 3.15854861e+00 1.71090009e-02 
97 1584.68 3.08200621e+00 2.67975284e-02 
96 1585.97 3.08744141e+00 1.12050112e-02 
95 1587.25 2.98195368e+00 2.75974447e-02 
94 1588.54 2.99024359e+00 4.49414794e-02 
93 1589.82 2.93200579e+00 5.27494321e-02 
92 1591.10 3.03315486e+00 4.84907239e-02 
91 1592.38 2.99409521e+00 5.29695449e-02 
90 1593.66 3.06354020e+00 3.72372044e-02 
89 1594.94 2.99947935e+00 1.77256499e-02 
88 1596.22 3.02669230e+00 2.46916526e-02 
87 1597.50 2.93721755e+00 1.96527432e-02 
86 1598.77 2.96255739e+00 1.40668090e-02 
85 1600.05 2.86330607e+00 2.64418344e-02 
84 1601.32 2.90939040e+00 1.97341111e-02 
83 1602.59 2.80018721e+00 1.99863219e-02 
82 1603.86 2.88891686e+00 3.30079837e-02 
81 1605.13 2.75519260e+00 9.76230795e-03 
80 1606.40 2.81115161e+00 1.14129905e-02 
79 1607.67 2.70765228e+00 1.14126507e-02 
78 1608.94 2.76079682e+00 7.86764966e-03 
77 1610.20 2.69754074e+00 9.19480316e-03 
76 1611.47 2.75313847e+00 2.44708646e-02 
75 1612.73 2.68407673e+00 3.49244648e-02 
74 1614.00 2.73907302e+00 3.69108395e-02 
73 1615.26 2.64610706e+00 6.75932246e-02 
72 1616.52 2.66965810e+00 6.47974657e-02 
71 1617.78 2.56732096e+00 6.86338432e-02 
70 1619.03 2.61654938e+00 4.03652372e-02 
69 1620.29 2.53244482e+00 6.80547274e-02 
68 1621.55 2.61659692e+00 2.61158050e-02 
67 1622.80 2.53729974e+00 3.88939042e-02 
66 1624.06 2.60753360e+00 3.77284618e-02 
65 1625.31 2.50234419e+00 4.21957264e-02 
64 1626.56 2.56692773e+00 3.35217382e-02 
63 1627.81 2.46949335e+00 3.43783844e-02 
62 1629.06 2.49013598e+00 2.61564442e-02 
61 1630.31 2.39039553e+00 4.14408792e-02 
