% C0 (TOA Count Rate, /ms) for 4STAR NIR spectrometer (512 channels) derived from 4STAR_20161111starsun.mat and recorded on 2016-11-11 19:03:49.
% Data outside 2.0x the STD of 501 nm Langley residuals were screened out.
Pix Wavelength C0 C0err
511 949.79 3.41314877e+00 1.02394463e-01 
510 949.79 4.77798791e+00 1.43339637e-01 
509 951.68 5.19049701e+00 1.55714910e-01 
508 953.57 5.22662684e+00 1.56798805e-01 
507 955.46 5.69172464e+00 1.70751739e-01 
506 957.34 5.84062380e+00 1.75218714e-01 
505 959.22 6.39042595e+00 1.91712778e-01 
504 961.10 6.55153546e+00 1.96546064e-01 
503 962.98 7.08955240e+00 2.12686572e-01 
502 964.85 7.18531638e+00 2.15559491e-01 
501 966.72 7.82660875e+00 2.34798263e-01 
500 968.59 7.96041454e+00 2.38812436e-01 
499 970.45 8.37949818e+00 2.51384945e-01 
498 972.32 8.30492723e+00 2.49147817e-01 
497 974.18 8.63886179e+00 2.59165854e-01 
496 976.04 8.60046852e+00 2.58014056e-01 
495 977.89 8.97941058e+00 2.69382317e-01 
494 979.74 8.94974092e+00 2.68492228e-01 
493 981.59 9.27425050e+00 2.78227515e-01 
492 983.44 9.21937724e+00 2.76581317e-01 
491 985.29 9.48189033e+00 2.84456710e-01 
490 987.13 9.32168484e+00 2.79650545e-01 
489 988.97 9.60178532e+00 2.88053559e-01 
488 990.81 9.38776624e+00 2.81632987e-01 
487 992.65 9.57405023e+00 2.87221507e-01 
486 994.48 9.35827907e+00 2.80748372e-01 
485 996.31 9.49598686e+00 2.84879606e-01 
484 998.14 9.23563121e+00 2.77068936e-01 
483 999.97 9.41581192e+00 2.82474358e-01 
482 1001.79 9.13110012e+00 2.73933004e-01 
481 1003.62 9.26567316e+00 2.77970195e-01 
480 1005.44 9.06254205e+00 2.71876261e-01 
479 1007.25 9.33096032e+00 2.79928810e-01 
478 1009.07 9.10941602e+00 2.73282481e-01 
477 1010.88 9.25509846e+00 2.77652954e-01 
476 1012.69 8.97061009e+00 2.69118303e-01 
475 1014.50 9.07454856e+00 2.72236457e-01 
474 1016.31 8.81843428e+00 2.64553029e-01 
473 1018.11 8.97660736e+00 2.69298221e-01 
472 1019.91 8.72991853e+00 2.61897556e-01 
471 1021.71 8.90518958e+00 2.67155687e-01 
470 1023.51 8.67284148e+00 2.60185244e-01 
469 1025.30 8.80848665e+00 2.64254600e-01 
468 1027.09 8.67093102e+00 2.60127931e-01 
467 1028.88 8.78438780e+00 2.63531634e-01 
466 1030.67 8.60202224e+00 2.58060667e-01 
465 1032.46 8.75424241e+00 2.62627272e-01 
464 1034.24 8.60339461e+00 2.58101838e-01 
463 1036.02 8.78772907e+00 2.63631872e-01 
462 1037.80 8.67466480e+00 2.60239944e-01 
461 1039.58 8.86292634e+00 2.65887790e-01 
460 1041.35 8.71674309e+00 2.61502293e-01 
459 1043.12 8.88406495e+00 2.66521948e-01 
458 1044.89 8.82961521e+00 2.64888456e-01 
457 1046.66 9.06612064e+00 2.71983619e-01 
456 1048.43 9.02296409e+00 2.70688923e-01 
455 1050.19 9.28504499e+00 2.78551350e-01 
454 1051.95 9.15904921e+00 2.74771476e-01 
453 1053.71 9.40563248e+00 2.82168974e-01 
452 1055.47 9.20605457e+00 2.76181637e-01 
451 1057.23 9.32482319e+00 2.79744696e-01 
450 1058.98 9.13637921e+00 2.74091376e-01 
449 1060.73 9.35224829e+00 2.80567449e-01 
448 1062.48 9.18011851e+00 2.75403555e-01 
447 1064.23 9.34130558e+00 2.80239167e-01 
446 1065.97 9.08715596e+00 2.72614679e-01 
445 1067.71 9.11490261e+00 2.73447078e-01 
444 1069.46 8.91404126e+00 2.67421238e-01 
443 1071.19 8.97010840e+00 2.69103252e-01 
442 1072.93 8.80184481e+00 2.64055344e-01 
441 1074.67 8.89284011e+00 2.66785203e-01 
440 1076.40 8.67502678e+00 2.60250803e-01 
439 1078.13 8.72531691e+00 2.61759507e-01 
438 1079.86 8.47475075e+00 2.54242523e-01 
437 1081.58 8.52657732e+00 2.55797320e-01 
436 1083.31 8.38590610e+00 2.51577183e-01 
435 1085.03 8.55010938e+00 2.56503282e-01 
434 1086.75 8.46734818e+00 2.54020445e-01 
433 1088.47 8.59711203e+00 2.57913361e-01 
432 1090.19 8.46869289e+00 2.54060787e-01 
431 1091.90 8.57941317e+00 2.57382395e-01 
430 1093.61 8.45858067e+00 2.53757420e-01 
429 1095.33 8.68946660e+00 2.60683998e-01 
428 1097.03 8.69901829e+00 2.60970549e-01 
427 1098.74 8.95818366e+00 2.68745510e-01 
426 1100.45 8.97359899e+00 2.69207970e-01 
425 1102.15 9.23131912e+00 2.76939574e-01 
424 1103.85 9.18583424e+00 2.75575027e-01 
423 1105.55 9.32931153e+00 2.79879346e-01 
422 1107.25 9.11969585e+00 2.73590875e-01 
421 1108.94 9.09465372e+00 2.72839612e-01 
420 1110.64 8.62959578e+00 2.58887873e-01 
419 1112.33 8.24781316e+00 2.47434395e-01 
418 1114.02 7.43519682e+00 2.23055905e-01 
417 1115.70 7.13402235e+00 2.14020671e-01 
416 1117.39 6.81575513e+00 2.04472654e-01 
415 1119.07 6.67361231e+00 2.00208369e-01 
414 1120.76 6.54587503e+00 1.96376251e-01 
413 1122.44 6.45137201e+00 1.93541160e-01 
412 1124.12 6.45609954e+00 1.93682986e-01 
411 1125.79 6.82499790e+00 2.04749937e-01 
410 1127.47 7.01194970e+00 2.10358491e-01 
409 1129.14 7.54304907e+00 2.26291472e-01 
408 1130.81 6.86408836e+00 2.05922651e-01 
407 1132.48 6.63581456e+00 1.99074437e-01 
406 1134.15 6.56551572e+00 1.96965472e-01 
405 1135.81 7.18016253e+00 2.15404876e-01 
404 1137.48 8.18407145e+00 2.45522144e-01 
403 1139.14 8.60732494e+00 2.58219748e-01 
402 1140.80 8.16419902e+00 2.44925971e-01 
401 1142.46 7.85228701e+00 2.35568610e-01 
400 1144.12 7.31362193e+00 2.19408658e-01 
399 1145.77 7.21438987e+00 2.16431696e-01 
398 1147.43 7.28608018e+00 2.18582405e-01 
397 1149.08 7.69280732e+00 2.30784220e-01 
396 1150.73 7.75003767e+00 2.32501130e-01 
395 1152.38 8.21120857e+00 2.46336257e-01 
394 1154.02 8.32160217e+00 2.49648065e-01 
393 1155.67 8.73877123e+00 2.62163137e-01 
392 1157.31 8.78125945e+00 2.63437784e-01 
391 1158.95 9.03799739e+00 2.71139922e-01 
390 1160.59 9.13941539e+00 2.74182462e-01 
389 1162.23 9.45306964e+00 2.83592089e-01 
388 1163.87 9.42542649e+00 2.82762795e-01 
387 1165.50 9.49028174e+00 2.84708452e-01 
386 1167.13 9.40305766e+00 2.82091730e-01 
385 1168.76 9.49193029e+00 2.84757909e-01 
384 1170.39 9.33588907e+00 2.80076672e-01 
383 1172.02 9.33074444e+00 2.79922333e-01 
382 1173.65 9.12496461e+00 2.73748938e-01 
381 1175.27 9.08510671e+00 2.72553201e-01 
380 1176.90 8.96811776e+00 2.69043533e-01 
379 1178.52 8.84349659e+00 2.65304898e-01 
378 1180.14 8.64079892e+00 2.59223968e-01 
377 1181.75 8.61171952e+00 2.58351586e-01 
376 1183.37 8.43620718e+00 2.53086215e-01 
375 1184.99 8.43262340e+00 2.52978702e-01 
374 1186.60 8.36988662e+00 2.51096599e-01 
373 1188.21 8.37762551e+00 2.51328765e-01 
372 1189.82 8.36906605e+00 2.51071982e-01 
371 1191.43 8.60470592e+00 2.58141178e-01 
370 1193.04 8.49721799e+00 2.54916540e-01 
369 1194.64 8.47927939e+00 2.54378382e-01 
368 1196.24 8.28440003e+00 2.48532001e-01 
367 1197.85 8.32110669e+00 2.49633201e-01 
366 1199.45 8.15463678e+00 2.44639103e-01 
365 1201.05 8.22244829e+00 2.46673449e-01 
364 1202.64 8.16561739e+00 2.44968522e-01 
363 1204.24 8.25555226e+00 2.47666568e-01 
362 1205.83 8.29853309e+00 2.48955993e-01 
361 1207.43 8.33053962e+00 2.49916188e-01 
360 1209.02 8.23037907e+00 2.46911372e-01 
359 1210.61 8.33905241e+00 2.50171572e-01 
358 1212.19 8.31863342e+00 2.49559002e-01 
357 1213.78 8.49200410e+00 2.54760123e-01 
356 1215.37 8.44217231e+00 2.53265169e-01 
355 1216.95 8.49100251e+00 2.54730075e-01 
354 1218.53 8.46900703e+00 2.54070211e-01 
353 1220.11 8.54137261e+00 2.56241178e-01 
352 1221.69 8.49421068e+00 2.54826320e-01 
351 1223.27 8.50875782e+00 2.55262735e-01 
350 1224.84 8.52743293e+00 2.55822988e-01 
349 1226.42 8.58439558e+00 2.57531867e-01 
348 1227.99 8.54269075e+00 2.56280723e-01 
347 1229.56 8.64408732e+00 2.59322620e-01 
346 1231.13 8.55041338e+00 2.56512401e-01 
345 1232.70 8.56709930e+00 2.57012979e-01 
344 1234.27 8.53531642e+00 2.56059493e-01 
343 1235.84 8.54998529e+00 2.56499559e-01 
342 1237.40 8.53230649e+00 2.55969195e-01 
341 1238.96 8.54171329e+00 2.56251399e-01 
340 1240.52 8.36641311e+00 2.50992393e-01 
339 1242.08 8.49684836e+00 2.54905451e-01 
338 1243.64 8.44279789e+00 2.53283937e-01 
337 1245.20 8.46106594e+00 2.53831978e-01 
336 1246.75 8.40711264e+00 2.52213379e-01 
335 1248.31 8.48338025e+00 2.54501408e-01 
334 1249.86 8.41332185e+00 2.52399656e-01 
333 1251.41 8.48181407e+00 2.54454422e-01 
332 1252.96 8.39978459e+00 2.51993538e-01 
331 1254.51 8.44649694e+00 2.53394908e-01 
330 1256.06 8.35403363e+00 2.50621009e-01 
329 1257.61 8.29482804e+00 2.48844841e-01 
328 1259.15 8.18318202e+00 2.45495461e-01 
327 1260.69 8.17498272e+00 2.45249482e-01 
326 1262.23 8.09553618e+00 2.42866085e-01 
325 1263.77 8.09181126e+00 2.42754338e-01 
324 1265.31 7.93769353e+00 2.38130806e-01 
323 1266.85 7.95771196e+00 2.38731359e-01 
322 1268.39 7.96501996e+00 2.38950599e-01 
321 1269.92 8.09745678e+00 2.42923704e-01 
320 1271.46 8.25806210e+00 2.47741863e-01 
319 1272.99 8.32900236e+00 2.49870071e-01 
318 1274.52 8.30037363e+00 2.49011209e-01 
317 1276.05 8.38211238e+00 2.51463371e-01 
316 1277.58 8.22271886e+00 2.46681566e-01 
315 1279.10 8.04945117e+00 2.41483535e-01 
314 1280.63 8.01012236e+00 2.40303671e-01 
313 1282.15 8.01610223e+00 2.40483067e-01 
312 1283.68 8.14976641e+00 2.44492992e-01 
311 1285.20 8.36223849e+00 2.50867155e-01 
310 1286.72 8.32272242e+00 2.49681673e-01 
309 1288.24 8.31867048e+00 2.49560114e-01 
308 1289.75 8.23081160e+00 2.46924348e-01 
307 1291.27 8.22422743e+00 2.46726823e-01 
306 1292.78 8.24612270e+00 2.47383681e-01 
305 1294.30 8.23153394e+00 2.46946018e-01 
304 1295.81 8.13572335e+00 2.44071701e-01 
303 1297.32 8.07444267e+00 2.42233280e-01 
302 1298.83 8.00658830e+00 2.40197649e-01 
301 1300.34 7.88628802e+00 2.36588641e-01 
300 1301.85 7.79302925e+00 2.33790878e-01 
299 1303.35 7.69415123e+00 2.30824537e-01 
298 1304.86 7.57027494e+00 2.27108248e-01 
297 1306.36 7.53557962e+00 2.26067389e-01 
296 1307.86 7.52206078e+00 2.25661823e-01 
295 1309.36 7.44654348e+00 2.23396304e-01 
294 1310.86 7.30918502e+00 2.19275551e-01 
293 1312.36 7.21267804e+00 2.16380341e-01 
292 1313.86 7.10872992e+00 2.13261898e-01 
291 1315.36 7.08499332e+00 2.12549800e-01 
290 1316.85 7.00110919e+00 2.10033276e-01 
289 1318.34 6.94114133e+00 2.08234240e-01 
288 1319.84 6.85945567e+00 2.05783670e-01 
287 1321.33 6.90256148e+00 2.07076844e-01 
286 1322.82 6.91601887e+00 2.07480566e-01 
285 1324.30 6.87025895e+00 2.06107769e-01 
284 1325.79 6.64545031e+00 1.99363509e-01 
283 1327.28 6.39106607e+00 1.91731982e-01 
282 1328.76 6.03497441e+00 1.81049232e-01 
281 1330.25 5.89329163e+00 1.76798749e-01 
280 1331.73 5.83528774e+00 1.75058632e-01 
279 1333.21 5.85502218e+00 1.75650665e-01 
278 1334.69 5.89744497e+00 1.76923349e-01 
277 1336.17 5.88258853e+00 1.76477656e-01 
276 1337.65 5.74273015e+00 1.72281905e-01 
275 1339.12 5.69811269e+00 1.70943381e-01 
274 1340.60 5.42953255e+00 1.62885976e-01 
273 1342.07 5.12453030e+00 1.53735909e-01 
272 1343.55 4.76146486e+00 1.42843946e-01 
271 1345.02 3.99525687e+00 1.19857706e-01 
270 1346.49 3.62805006e+00 1.08841502e-01 
269 1347.96 3.03319686e+00 9.09959059e-02 
268 1349.43 2.44219033e+00 7.32657100e-02 
267 1350.89 1.93783507e+00 5.81350521e-02 
266 1352.36 7.50666544e-01 2.25199963e-02 
265 1353.82 7.45714423e-01 2.23714327e-02 
264 1355.29 3.03236055e-01 9.09708165e-03 
263 1356.75 2.63999616e-01 7.91998848e-03 
262 1358.21 1.07196896e-01 3.21590687e-03 
261 1359.67 2.31946986e-01 6.95840958e-03 
260 1361.13 2.23205389e-01 6.69616168e-03 
259 1362.59 1.44574986e-01 4.33724959e-03 
258 1364.04 7.94981371e-02 2.38494411e-03 
257 1365.50 6.66404220e-02 1.99921266e-03 
256 1366.95 3.53882166e-01 1.06164650e-02 
255 1368.41 1.71926515e-01 5.15779544e-03 
254 1369.86 1.07584662e-01 3.22753986e-03 
253 1371.31 1.23354278e-01 3.70062835e-03 
252 1372.76 4.50688951e-01 1.35206685e-02 
251 1374.21 1.20202928e-01 3.60608783e-03 
250 1375.65 1.98466987e-01 5.95400961e-03 
249 1377.10 1.22818982e-01 3.68456945e-03 
248 1378.55 2.63709474e-01 7.91128421e-03 
247 1379.99 1.17916746e-01 3.53750237e-03 
246 1381.43 2.83545016e-01 8.50635047e-03 
245 1382.87 3.48615963e-02 1.04584789e-03 
244 1384.32 8.87939068e-02 2.66381720e-03 
243 1385.75 2.84768745e-01 8.54306234e-03 
242 1387.19 4.88952071e-01 1.46685621e-02 
241 1388.63 2.18453498e-01 6.55360495e-03 
240 1390.07 7.42403383e-01 2.22721015e-02 
239 1391.50 6.69881555e-01 2.00964467e-02 
238 1392.94 4.47566100e-01 1.34269830e-02 
237 1394.37 4.16244308e-01 1.24873293e-02 
236 1395.80 3.60726005e-01 1.08217802e-02 
235 1397.23 8.01174734e-01 2.40352420e-02 
234 1398.66 5.13236790e-01 1.53971037e-02 
233 1400.09 9.78627672e-01 2.93588302e-02 
232 1401.52 7.00083146e-01 2.10024944e-02 
231 1402.94 9.83671733e-01 2.95101520e-02 
230 1404.37 2.57402012e-01 7.72206036e-03 
229 1405.79 1.18459342e+00 3.55378026e-02 
228 1407.22 2.33467130e-01 7.00401390e-03 
227 1408.64 1.17797208e+00 3.53391624e-02 
226 1410.06 4.37925772e-01 1.31377732e-02 
225 1411.48 1.25974732e+00 3.77924197e-02 
224 1412.90 5.78294823e-01 1.73488447e-02 
223 1414.32 1.67946442e+00 5.03839326e-02 
222 1415.73 1.66505241e+00 4.99515722e-02 
221 1417.15 1.73776967e+00 5.21330902e-02 
220 1418.56 1.94528941e+00 5.83586824e-02 
219 1419.98 1.84447777e+00 5.53343332e-02 
218 1421.39 2.05617671e+00 6.16853013e-02 
217 1422.80 2.33319044e+00 6.99957132e-02 
216 1424.21 2.37880520e+00 7.13641560e-02 
215 1425.62 2.28777141e+00 6.86331423e-02 
214 1427.03 2.38222306e+00 7.14666917e-02 
213 1428.44 2.27944198e+00 6.83832594e-02 
212 1429.84 2.12822730e+00 6.38468190e-02 
211 1431.25 2.27773797e+00 6.83321390e-02 
210 1432.65 2.25122387e+00 6.75367161e-02 
209 1434.06 2.34444900e+00 7.03334699e-02 
208 1435.46 2.41021690e+00 7.23065070e-02 
207 1436.86 2.50284489e+00 7.50853466e-02 
206 1438.26 2.55480673e+00 7.66442020e-02 
205 1439.66 2.67008083e+00 8.01024250e-02 
204 1441.05 2.89141698e+00 8.67425094e-02 
203 1442.45 2.85136607e+00 8.55409821e-02 
202 1443.85 2.79558613e+00 8.38675839e-02 
201 1445.24 2.89391317e+00 8.68173951e-02 
200 1446.64 2.88329138e+00 8.64987414e-02 
199 1448.03 2.72503875e+00 8.17511626e-02 
198 1449.42 2.86835063e+00 8.60505189e-02 
197 1450.81 2.92535347e+00 8.77606041e-02 
196 1452.20 3.03195461e+00 9.09586384e-02 
195 1453.59 3.46194467e+00 1.03858340e-01 
194 1454.97 3.75699979e+00 1.12709994e-01 
193 1456.36 3.83037259e+00 1.14911178e-01 
192 1457.75 3.88710574e+00 1.16613172e-01 
191 1459.13 3.78936910e+00 1.13681073e-01 
190 1460.51 3.63617070e+00 1.09085121e-01 
189 1461.90 3.44447523e+00 1.03334257e-01 
188 1463.28 3.31208558e+00 9.93625673e-02 
187 1464.66 3.15269135e+00 9.45807406e-02 
186 1466.04 3.16652647e+00 9.49957940e-02 
185 1467.41 2.92328102e+00 8.76984306e-02 
184 1468.79 2.84639713e+00 8.53919140e-02 
183 1470.17 2.78932992e+00 8.36798975e-02 
182 1471.54 2.82349275e+00 8.47047824e-02 
181 1472.92 2.98509500e+00 8.95528501e-02 
180 1474.29 3.18261406e+00 9.54784219e-02 
179 1475.66 3.23170781e+00 9.69512342e-02 
178 1477.03 3.09921853e+00 9.29765560e-02 
177 1478.40 3.02618073e+00 9.07854220e-02 
176 1479.77 3.14976169e+00 9.44928507e-02 
175 1481.14 3.20183836e+00 9.60551507e-02 
174 1482.51 3.35414090e+00 1.00624227e-01 
173 1483.87 3.37843604e+00 1.01353081e-01 
172 1485.24 3.38781006e+00 1.01634302e-01 
171 1486.60 3.38122016e+00 1.01436605e-01 
170 1487.96 3.48869648e+00 1.04660895e-01 
169 1489.32 3.55568189e+00 1.06670457e-01 
168 1490.69 3.77222869e+00 1.13166861e-01 
167 1492.04 3.79917407e+00 1.13975222e-01 
166 1493.40 3.84983959e+00 1.15495188e-01 
165 1494.76 3.87668824e+00 1.16300647e-01 
164 1496.12 3.94290327e+00 1.18287098e-01 
163 1497.47 3.97161558e+00 1.19148467e-01 
162 1498.83 4.07183329e+00 1.22154999e-01 
161 1500.18 3.90715757e+00 1.17214727e-01 
160 1501.53 3.82745980e+00 1.14823794e-01 
159 1502.89 3.71346801e+00 1.11404040e-01 
158 1504.24 3.76816377e+00 1.13044913e-01 
157 1505.59 3.80322605e+00 1.14096781e-01 
156 1506.93 3.97763830e+00 1.19329149e-01 
155 1508.28 4.03892160e+00 1.21167648e-01 
154 1509.63 4.07111275e+00 1.22133382e-01 
153 1510.97 4.04689427e+00 1.21406828e-01 
152 1512.32 4.12330017e+00 1.23699005e-01 
151 1513.66 4.04492737e+00 1.21347821e-01 
150 1515.00 4.07454823e+00 1.22236447e-01 
149 1516.34 4.03669187e+00 1.21100756e-01 
148 1517.69 4.10489192e+00 1.23146758e-01 
147 1519.02 4.04375543e+00 1.21312663e-01 
146 1520.36 4.06859035e+00 1.22057710e-01 
145 1521.70 4.01090496e+00 1.20327149e-01 
144 1523.04 4.09701118e+00 1.22910335e-01 
143 1524.37 4.05822757e+00 1.21746827e-01 
142 1525.71 4.10511467e+00 1.23153440e-01 
141 1527.04 4.03511785e+00 1.21053535e-01 
140 1528.37 4.05776961e+00 1.21733088e-01 
139 1529.70 3.98321040e+00 1.19496312e-01 
138 1531.03 4.03273056e+00 1.20981917e-01 
137 1532.36 3.96749535e+00 1.19024861e-01 
136 1533.69 3.99385760e+00 1.19815728e-01 
135 1535.02 3.91342538e+00 1.17402761e-01 
134 1536.34 3.93393914e+00 1.18018174e-01 
133 1537.67 3.84433504e+00 1.15330051e-01 
132 1538.99 3.86955093e+00 1.16086528e-01 
131 1540.31 3.81552801e+00 1.14465840e-01 
130 1541.64 3.85824018e+00 1.15747205e-01 
129 1542.96 3.82620878e+00 1.14786264e-01 
128 1544.28 3.88870146e+00 1.16661044e-01 
127 1545.60 3.82968820e+00 1.14890646e-01 
126 1546.91 3.86578589e+00 1.15973577e-01 
125 1548.23 3.75964579e+00 1.12789374e-01 
124 1549.55 3.78985057e+00 1.13695517e-01 
123 1550.86 3.68519277e+00 1.10555783e-01 
122 1552.18 3.70425018e+00 1.11127505e-01 
121 1553.49 3.65642570e+00 1.09692771e-01 
120 1554.80 3.70914568e+00 1.11274370e-01 
119 1556.11 3.62996082e+00 1.08898825e-01 
118 1557.42 3.66839467e+00 1.10051840e-01 
117 1558.73 3.60286048e+00 1.08085814e-01 
116 1560.04 3.61140500e+00 1.08342150e-01 
115 1561.34 3.51888277e+00 1.05566483e-01 
114 1562.65 3.56422353e+00 1.06926706e-01 
113 1563.95 3.47990535e+00 1.04397160e-01 
112 1565.26 3.52895287e+00 1.05868586e-01 
111 1566.56 3.40945652e+00 1.02283695e-01 
110 1567.86 3.42473587e+00 1.02742076e-01 
109 1569.16 3.33650305e+00 1.00095092e-01 
108 1570.46 3.36417439e+00 1.00925232e-01 
107 1571.76 3.28205272e+00 9.84615815e-02 
106 1573.05 3.27697733e+00 9.83093199e-02 
105 1574.35 3.16646547e+00 9.49939640e-02 
104 1575.64 3.18440808e+00 9.55322423e-02 
103 1576.94 3.13268799e+00 9.39806398e-02 
102 1578.23 3.20880824e+00 9.62642473e-02 
101 1579.52 3.14531124e+00 9.43593371e-02 
100 1580.81 3.20897006e+00 9.62691019e-02 
99 1582.10 3.12195392e+00 9.36586175e-02 
98 1583.39 3.18185835e+00 9.54557506e-02 
97 1584.68 3.10501352e+00 9.31504056e-02 
96 1585.97 3.08376426e+00 9.25129278e-02 
95 1587.25 3.00467789e+00 9.01403367e-02 
94 1588.54 3.02796743e+00 9.08390228e-02 
93 1589.82 2.98949698e+00 8.96849093e-02 
92 1591.10 3.08349869e+00 9.25049607e-02 
91 1592.38 3.05762917e+00 9.17288751e-02 
90 1593.66 3.12116768e+00 9.36350303e-02 
89 1594.94 3.02988797e+00 9.08966390e-02 
88 1596.22 3.05462133e+00 9.16386399e-02 
87 1597.50 2.95941797e+00 8.87825392e-02 
86 1598.77 2.98715773e+00 8.96147318e-02 
85 1600.05 2.89810658e+00 8.69431973e-02 
84 1601.32 2.91466257e+00 8.74398770e-02 
83 1602.59 2.81610861e+00 8.44832584e-02 
82 1603.86 2.86420267e+00 8.59260801e-02 
81 1605.13 2.75063149e+00 8.25189446e-02 
80 1606.40 2.79660587e+00 8.38981761e-02 
79 1607.67 2.69236557e+00 8.07709672e-02 
78 1608.94 2.73813692e+00 8.21441076e-02 
77 1610.20 2.70664296e+00 8.11992888e-02 
76 1611.47 2.77829376e+00 8.33488128e-02 
75 1612.73 2.73250745e+00 8.19752236e-02 
74 1614.00 2.80400999e+00 8.41202996e-02 
73 1615.26 2.72472924e+00 8.17418773e-02 
72 1616.52 2.76186430e+00 8.28559290e-02 
71 1617.78 2.66072801e+00 7.98218404e-02 
70 1619.03 2.68649691e+00 8.05949074e-02 
69 1620.29 2.61587772e+00 7.84763317e-02 
68 1621.55 2.67255662e+00 8.01766987e-02 
67 1622.80 2.59188752e+00 7.77566255e-02 
66 1624.06 2.66031671e+00 7.98095013e-02 
65 1625.31 2.55235642e+00 7.65706927e-02 
64 1626.56 2.60019932e+00 7.80059797e-02 
63 1627.81 2.51254425e+00 7.53763274e-02 
62 1629.06 2.51902128e+00 7.55706384e-02 
61 1630.31 2.42620026e+00 7.27860079e-02 
60 1631.56 2.44394497e+00 7.33183492e-02 
59 1632.80 2.34975132e+00 7.04925396e-02 
58 1634.05 2.36975986e+00 7.10927958e-02 
57 1635.29 2.26378781e+00 6.79136342e-02 
56 1636.53 2.27409218e+00 6.82227655e-02 
55 1637.77 2.16298782e+00 6.48896346e-02 
54 1639.01 2.20928643e+00 6.62785929e-02 
53 1640.25 2.14781029e+00 6.44343086e-02 
52 1641.49 2.15984883e+00 6.47954650e-02 
51 1642.73 2.09343401e+00 6.28030202e-02 
