% C0 (TOA Count Rate, /ms) for 4STAR VIS spectrometer (1044 channels) derived from 20160825starsun.mat and recorded on 2016-10-21 17:31:38.
% Data outside 2.0x the STD of 501 nm Langley residuals were screened out.
Pix Wavelength C0 C0err
0 173.18 -1.00000000e+00 -1.00000000e+00 
1 173.97 3.12194893e+01 9.36584678e-01 
2 174.77 2.16100988e+01 6.48302965e-01 
3 175.56 1.46661725e+02 4.39985176e+00 
4 176.36 5.90780443e+03 1.77234133e+02 
5 177.15 7.12618111e+03 2.13785433e+02 
6 177.94 8.24071096e+03 2.47221329e+02 
7 178.74 9.44596989e+03 2.83379097e+02 
8 179.53 1.04469435e+04 3.13408305e+02 
9 180.33 1.15573793e+04 3.46721380e+02 
10 181.12 1.28293642e+04 3.84880926e+02 
11 181.92 1.41908692e+04 4.25726077e+02 
12 182.71 1.65702592e+04 4.97107777e+02 
13 183.51 1.89690916e+04 5.69072748e+02 
14 184.30 2.15538674e+04 6.46616021e+02 
15 185.10 2.42991431e+04 7.28974294e+02 
16 185.89 2.84616663e+04 8.53849988e+02 
17 186.69 3.32563672e+04 9.97691016e+02 
18 187.49 3.76320187e+04 1.12896056e+03 
19 188.28 4.50652984e+04 1.35195895e+03 
20 189.08 4.94705116e+04 1.48411535e+03 
21 189.88 5.56647077e+04 1.66994123e+03 
22 190.67 6.70320495e+04 2.01096148e+03 
23 191.47 8.01312355e+04 2.40393706e+03 
24 192.27 9.39720545e+04 2.81916163e+03 
25 193.07 1.14274661e+05 3.42823984e+03 
26 193.86 1.30159689e+05 3.90479066e+03 
27 194.66 1.63799055e+05 4.91397164e+03 
28 195.46 2.06850890e+05 6.20552670e+03 
29 196.26 2.47951287e+05 7.43853862e+03 
30 197.05 3.15605145e+05 9.46815436e+03 
31 197.85 4.10055400e+05 1.23016620e+04 
32 198.65 5.38719866e+05 1.61615960e+04 
33 199.45 7.16744007e+05 2.15023202e+04 
34 200.25 9.54688903e+05 2.86406671e+04 
35 201.05 1.27809388e+06 3.83428165e+04 
36 201.85 1.73220345e+06 5.19661034e+04 
37 202.64 1.82954869e+06 5.48864606e+04 
38 203.44 1.64561600e+06 4.93684801e+04 
39 204.24 1.72613611e+06 5.17840834e+04 
40 205.04 1.47550432e+06 4.42651297e+04 
41 205.84 1.08417808e+06 3.25253425e+04 
42 206.64 8.03481252e+05 2.41044376e+04 
43 207.44 5.89129353e+05 1.76738806e+04 
44 208.24 4.35703647e+05 1.30711094e+04 
45 209.04 3.20274348e+05 9.60823043e+03 
46 209.84 2.37869068e+05 7.13607204e+03 
47 210.64 1.74571352e+05 5.23714055e+03 
48 211.44 1.29475791e+05 3.88427374e+03 
49 212.24 9.29348893e+04 2.78804668e+03 
50 213.05 6.88326125e+04 2.06497838e+03 
51 213.85 5.24526966e+04 1.57358090e+03 
52 214.65 3.76186186e+04 1.12855856e+03 
53 215.45 2.74552482e+04 8.23657447e+02 
54 216.25 2.01756717e+04 6.05270151e+02 
55 217.05 1.50509482e+04 4.51528445e+02 
56 217.85 1.09887043e+04 3.29661128e+02 
57 218.65 8.03444170e+03 2.41033251e+02 
58 219.46 6.05884938e+03 1.81765481e+02 
59 220.26 4.44727960e+03 1.33418388e+02 
60 221.06 3.25773909e+03 9.77321728e+01 
61 221.86 2.36337755e+03 7.09013264e+01 
62 222.66 1.79034579e+03 5.37103738e+01 
63 223.47 1.30625454e+03 3.91876361e+01 
64 224.27 9.60509920e+02 2.88152976e+01 
65 225.07 7.14153319e+02 2.14245996e+01 
66 225.87 5.23076389e+02 1.56922917e+01 
67 226.68 3.83430184e+02 1.15029055e+01 
68 227.48 2.80249675e+02 8.40749026e+00 
69 228.28 2.16791601e+02 6.50374802e+00 
70 229.09 1.73346909e+02 5.20040728e+00 
71 229.89 1.50713096e+02 4.52139287e+00 
72 230.69 1.49246283e+02 4.47738850e+00 
73 231.49 1.71331010e+02 5.13993029e+00 
74 232.30 2.21809656e+02 6.65428968e+00 
75 233.10 2.96895802e+02 8.90687406e+00 
76 233.91 4.17419752e+02 1.25225926e+01 
77 234.71 5.97682502e+02 1.79304750e+01 
78 235.51 8.56751605e+02 2.57025482e+01 
79 236.32 1.22986101e+03 3.68958303e+01 
80 237.12 1.75862429e+03 5.27587288e+01 
81 237.92 2.54547690e+03 7.63643071e+01 
82 238.73 3.66549876e+03 1.09964963e+02 
83 239.53 5.32164141e+03 1.59649242e+02 
84 240.34 7.68752109e+03 2.30625633e+02 
85 241.14 1.08155197e+04 3.24465591e+02 
86 241.94 1.55307331e+04 4.65921993e+02 
87 242.75 2.10710141e+04 6.32130424e+02 
88 243.55 2.92954574e+04 8.78863722e+02 
89 244.36 4.04063671e+04 1.21219101e+03 
90 245.16 5.37825736e+04 1.61347721e+03 
91 245.97 7.07912954e+04 2.12373886e+03 
92 246.77 8.93928922e+04 2.68178677e+03 
93 247.58 1.13156197e+05 3.39468592e+03 
94 248.38 1.38069619e+05 4.14208858e+03 
95 249.19 1.73957913e+05 5.21873738e+03 
96 249.99 2.04813236e+05 6.14439708e+03 
97 250.80 2.32807012e+05 6.98421037e+03 
98 251.60 2.60656936e+05 7.81970809e+03 
99 252.41 2.82584244e+05 8.47752732e+03 
100 253.21 3.10498771e+05 9.31496314e+03 
101 254.02 3.20583755e+05 9.61751266e+03 
102 254.83 3.36672596e+05 1.01001779e+04 
103 255.63 3.35413244e+05 1.00623973e+04 
104 256.44 3.15621670e+05 9.46865011e+03 
105 257.24 2.87719679e+05 8.63159038e+03 
106 258.05 2.66041118e+05 7.98123355e+03 
107 258.85 2.41461997e+05 7.24385990e+03 
108 259.66 2.04367701e+05 6.13103103e+03 
109 260.46 1.69059475e+05 5.07178425e+03 
110 261.27 1.36148581e+05 4.08445742e+03 
111 262.08 1.08888740e+05 3.26666221e+03 
112 262.88 8.27563783e+04 2.48269135e+03 
113 263.69 6.45636288e+04 1.93690886e+03 
114 264.50 4.85122693e+04 1.45536808e+03 
115 265.30 3.62198948e+04 1.08659685e+03 
116 266.11 2.64301355e+04 7.92904066e+02 
117 266.91 1.87343769e+04 5.62031307e+02 
118 267.72 1.28570030e+04 3.85710090e+02 
119 268.53 8.89691946e+03 2.66907584e+02 
120 269.33 6.10226443e+03 1.83067933e+02 
121 270.14 4.22717085e+03 1.26815125e+02 
122 270.95 2.94416762e+03 8.83250287e+01 
123 271.75 1.97622727e+03 5.92868180e+01 
124 272.56 1.35354522e+03 4.06063565e+01 
125 273.37 9.09282542e+02 2.72784763e+01 
126 274.17 6.05055926e+02 1.81516778e+01 
127 274.98 4.11852878e+02 1.23555864e+01 
128 275.79 2.83830245e+02 8.51490734e+00 
129 276.59 1.97314784e+02 5.91944351e+00 
130 277.40 1.38638370e+02 4.15915109e+00 
131 278.21 9.69924055e+01 2.90977217e+00 
132 279.01 6.80309642e+01 2.04092893e+00 
133 279.82 4.76433778e+01 1.42930133e+00 
134 280.63 3.44731942e+01 1.03419583e+00 
135 281.44 2.53276590e+01 7.59829770e-01 
136 282.24 1.83445521e+01 5.50336562e-01 
137 283.05 1.40980101e+01 4.22940302e-01 
138 283.86 1.08380425e+01 3.25141274e-01 
139 284.66 8.39708960e+00 2.51912688e-01 
140 285.47 6.62696538e+00 1.98808961e-01 
141 286.28 5.32988155e+00 1.59896447e-01 
142 287.09 4.35292739e+00 1.30587822e-01 
143 287.89 3.52697471e+00 1.05809241e-01 
144 288.70 2.92228598e+00 8.76685795e-02 
145 289.51 2.46286765e+00 7.38860296e-02 
146 290.32 2.12059885e+00 6.36179654e-02 
147 291.12 1.86114536e+00 5.58343609e-02 
148 291.93 1.61207042e+00 4.83621125e-02 
149 292.74 1.38246632e+00 4.14739895e-02 
150 293.55 1.27207469e+00 3.81622408e-02 
151 294.35 1.14878159e+00 3.44634477e-02 
152 295.16 1.03758859e+00 3.11276576e-02 
153 295.97 9.65745430e-01 2.89723629e-02 
154 296.78 8.73475605e-01 2.62042681e-02 
155 297.58 8.10922424e-01 2.43276727e-02 
156 298.39 7.63931781e-01 2.29179534e-02 
157 299.20 7.16574187e-01 2.14972256e-02 
158 300.01 6.87726006e-01 2.06317802e-02 
159 300.81 6.47782146e-01 1.94334644e-02 
160 301.62 6.28287015e-01 1.88486104e-02 
161 302.43 5.97520587e-01 1.79256176e-02 
162 303.24 5.89962098e-01 1.76988629e-02 
163 304.05 5.78995747e-01 1.73698724e-02 
164 304.85 5.65862663e-01 1.69758799e-02 
165 305.66 5.49785960e-01 1.64935788e-02 
166 306.47 5.44643426e-01 1.63393028e-02 
167 307.28 5.37157791e-01 1.61147337e-02 
168 308.08 5.31050334e-01 1.59315100e-02 
169 308.89 5.35608373e-01 1.60682512e-02 
170 309.70 5.10152853e-01 1.53045856e-02 
171 310.51 5.13633749e-01 1.54090125e-02 
172 311.32 5.10945247e-01 1.53283574e-02 
173 312.12 5.09314045e-01 1.52794213e-02 
174 312.93 5.20741942e-01 1.56222582e-02 
175 313.74 5.27229838e-01 1.58168951e-02 
176 314.55 5.25143114e-01 1.57542934e-02 
177 315.36 5.20988606e-01 1.56296582e-02 
178 316.16 5.32163519e-01 1.59649056e-02 
179 316.97 5.34133447e-01 1.60240034e-02 
180 317.78 5.54032777e-01 1.66209833e-02 
181 318.59 5.61738142e-01 1.68521443e-02 
182 319.39 5.74003916e-01 1.72201175e-02 
183 320.20 5.86246369e-01 1.75873911e-02 
184 321.01 6.00651580e-01 1.80195474e-02 
185 321.82 6.21560119e-01 1.86468036e-02 
186 322.63 6.45264007e-01 1.93579202e-02 
187 323.43 6.58121601e-01 1.97436480e-02 
188 324.24 6.77483387e-01 2.03245016e-02 
189 325.05 6.98565814e-01 2.09569744e-02 
190 325.86 7.14796636e-01 2.14438991e-02 
191 326.67 7.48172868e-01 2.24451860e-02 
192 327.48 7.73234261e-01 2.31970278e-02 
193 328.28 8.20957600e-01 2.46287280e-02 
194 329.09 8.42980451e-01 2.52894135e-02 
195 329.90 8.80008433e-01 2.64002530e-02 
196 330.71 9.39810771e-01 2.81943231e-02 
197 331.51 1.02788605e+00 3.08365814e-02 
198 332.32 1.17700189e+00 3.53100567e-02 
199 333.13 1.46748283e+00 4.40244848e-02 
200 333.94 1.98631257e+00 5.95893771e-02 
201 334.75 2.81546204e+00 8.44638612e-02 
202 335.56 3.97094276e+00 1.19128283e-01 
203 336.36 5.52299586e+00 1.65689876e-01 
204 337.17 7.99486053e+00 2.39845816e-01 
205 337.98 1.14008871e+01 3.42026614e-01 
206 338.79 1.54241345e+01 4.62724035e-01 
207 339.59 1.98827374e+01 5.96482123e-01 
208 340.40 2.37981973e+01 7.13945919e-01 
209 341.21 2.70078769e+01 8.10236307e-01 
210 342.02 3.08194527e+01 9.24583581e-01 
211 342.83 3.41974183e+01 1.02592255e+00 
212 343.64 3.50161536e+01 1.05048461e+00 
213 344.44 3.61092755e+01 1.08327827e+00 
214 345.25 4.00268369e+01 1.20080511e+00 
215 346.06 4.37835878e+01 1.31350763e+00 
216 346.87 4.62135894e+01 1.38640768e+00 
217 347.67 4.78757664e+01 1.43627299e+00 
218 348.48 4.94374622e+01 1.48312387e+00 
219 349.29 5.22846606e+01 1.56853982e+00 
220 350.10 5.73177236e+01 1.71953171e+00 
221 350.91 6.08406385e+01 1.82521915e+00 
222 351.71 6.10065528e+01 1.83019658e+00 
223 352.52 6.20040278e+01 1.86012083e+00 
224 353.33 6.73606197e+01 2.02081859e+00 
225 354.14 7.42335257e+01 2.22700577e+00 
226 354.94 7.73570457e+01 2.32071137e+00 
227 355.75 7.59854563e+01 2.27956369e+00 
228 356.56 7.15495995e+01 2.14648799e+00 
229 357.37 6.71470467e+01 2.01441140e+00 
230 358.18 6.60807302e+01 1.98242190e+00 
231 358.98 7.38946260e+01 2.21683878e+00 
232 359.79 8.53156918e+01 2.55947076e+00 
233 360.60 8.69937461e+01 2.60981238e+00 
234 361.41 8.55133186e+01 2.56539956e+00 
235 362.21 9.00003747e+01 2.70001124e+00 
236 363.02 9.53347421e+01 2.86004226e+00 
237 363.83 9.84934043e+01 2.95480213e+00 
238 364.64 1.03148353e+02 3.09445059e+00 
239 365.44 1.12299126e+02 3.36897377e+00 
240 366.25 1.20451256e+02 3.61353768e+00 
241 367.06 1.21579968e+02 3.64739905e+00 
242 367.87 1.19669397e+02 3.59008190e+00 
243 368.67 1.21162303e+02 3.63486910e+00 
244 369.48 1.26298316e+02 3.78894947e+00 
245 370.29 1.27555756e+02 3.82667269e+00 
246 371.10 1.26042352e+02 3.78127056e+00 
247 371.90 1.22829436e+02 3.68488308e+00 
248 372.71 1.16072835e+02 3.48218506e+00 
249 373.52 1.09526196e+02 3.28578589e+00 
250 374.33 1.08705080e+02 3.26115241e+00 
251 375.13 1.16063690e+02 3.48191070e+00 
252 375.94 1.26419008e+02 3.79257023e+00 
253 376.75 1.37496568e+02 4.12489703e+00 
254 377.55 1.50392960e+02 4.51178880e+00 
255 378.36 1.54222079e+02 4.62666238e+00 
256 379.17 1.46500285e+02 4.39500856e+00 
257 379.98 1.42865778e+02 4.28597334e+00 
258 380.78 1.42614250e+02 4.27842750e+00 
259 381.59 1.30483704e+02 3.91451113e+00 
260 382.40 1.11150734e+02 3.33452201e+00 
261 383.21 1.01816160e+02 3.05448479e+00 
262 384.01 1.10048082e+02 3.30144246e+00 
263 384.82 1.24521932e+02 3.73565795e+00 
264 385.63 1.30835105e+02 3.92505316e+00 
265 386.43 1.31971135e+02 3.95913405e+00 
266 387.24 1.32848438e+02 3.98545315e+00 
267 388.05 1.34856450e+02 4.04569349e+00 
268 388.85 1.42784451e+02 4.28353352e+00 
269 389.66 1.55952109e+02 4.67856327e+00 
270 390.47 1.66659530e+02 4.99978590e+00 
271 391.27 1.67634741e+02 5.02904222e+00 
272 392.08 1.50009619e+02 4.50028858e+00 
273 392.89 1.21967523e+02 3.65902569e+00 
274 393.69 1.14566058e+02 3.43698173e+00 
275 394.50 1.36044237e+02 4.08132712e+00 
276 395.31 1.52620177e+02 4.57860532e+00 
277 396.11 1.42938018e+02 4.28814055e+00 
278 396.92 1.34956253e+02 4.04868759e+00 
279 397.73 1.58289163e+02 4.74867489e+00 
280 398.53 1.95334809e+02 5.86004427e+00 
281 399.34 2.19295406e+02 6.57886219e+00 
282 400.15 2.30848460e+02 6.92545381e+00 
283 400.95 2.38748280e+02 7.16244839e+00 
284 401.76 2.45020421e+02 7.35061264e+00 
285 402.57 2.46937354e+02 7.40812062e+00 
286 403.37 2.45475106e+02 7.36425317e+00 
287 404.18 2.44226692e+02 7.32680075e+00 
288 404.98 2.43136810e+02 7.29410431e+00 
289 405.79 2.42008123e+02 7.26024370e+00 
290 406.60 2.42779473e+02 7.28338420e+00 
291 407.40 2.48660472e+02 7.45981416e+00 
292 408.21 2.57920365e+02 7.73761095e+00 
293 409.02 2.61687591e+02 7.85062773e+00 
294 409.82 2.58783525e+02 7.76350574e+00 
295 410.63 2.61464521e+02 7.84393563e+00 
296 411.44 2.72454297e+02 8.17362892e+00 
297 412.24 2.80108020e+02 8.40324061e+00 
298 413.05 2.80971262e+02 8.42913785e+00 
299 413.85 2.80498886e+02 8.41496657e+00 
300 414.66 2.80617724e+02 8.41853173e+00 
301 415.46 2.81278620e+02 8.43835860e+00 
302 416.27 2.81088426e+02 8.43265279e+00 
303 417.08 2.77298899e+02 8.31896696e+00 
304 417.88 2.72065504e+02 8.16196511e+00 
305 418.69 2.69358134e+02 8.08074402e+00 
306 419.49 2.69481625e+02 8.08444875e+00 
307 420.30 2.72352769e+02 8.17058308e+00 
308 421.11 2.74860646e+02 8.24581939e+00 
309 421.91 2.72399459e+02 8.17198376e+00 
310 422.72 2.67497208e+02 8.02491623e+00 
311 423.52 2.66737619e+02 8.00212858e+00 
312 424.33 2.69350105e+02 8.08050314e+00 
313 425.13 2.71082272e+02 8.13246817e+00 
314 425.94 2.71063201e+02 8.13189602e+00 
315 426.74 2.70567532e+02 8.11702595e+00 
316 427.55 2.70067824e+02 8.10203473e+00 
317 428.35 2.66768712e+02 8.00306135e+00 
318 429.16 2.56720748e+02 7.70162244e+00 
319 429.96 2.46070883e+02 7.38212648e+00 
320 430.77 2.52507404e+02 7.57522211e+00 
321 431.58 2.78942958e+02 8.36828874e+00 
322 432.38 3.07174323e+02 9.21522968e+00 
323 433.19 3.21691377e+02 9.65074132e+00 
324 433.99 3.29764201e+02 9.89292602e+00 
325 434.80 3.43549624e+02 1.03064887e+01 
326 435.60 3.62662780e+02 1.08798834e+01 
327 436.41 3.76181528e+02 1.12854458e+01 
328 437.21 3.77363318e+02 1.13208995e+01 
329 438.02 3.73329631e+02 1.11998889e+01 
330 438.82 3.75671790e+02 1.12701537e+01 
331 439.63 3.87108780e+02 1.16132634e+01 
332 440.43 4.04107181e+02 1.21232154e+01 
333 441.24 4.21782632e+02 1.26534790e+01 
334 442.04 4.37833300e+02 1.31349990e+01 
335 442.84 4.49363467e+02 1.34809040e+01 
336 443.65 4.56215838e+02 1.36864751e+01 
337 444.45 4.58916879e+02 1.37675064e+01 
338 445.26 4.59019754e+02 1.37705926e+01 
339 446.06 4.62906093e+02 1.38871828e+01 
340 446.87 4.73617724e+02 1.42085317e+01 
341 447.67 4.87516114e+02 1.46254834e+01 
342 448.48 4.98711520e+02 1.49613456e+01 
343 449.28 5.09039466e+02 1.52711840e+01 
344 450.09 5.20173461e+02 1.56052038e+01 
345 450.89 5.26802273e+02 1.58040682e+01 
346 451.69 5.22861750e+02 1.56858525e+01 
347 452.50 5.13272424e+02 1.53981727e+01 
348 453.30 5.08388366e+02 1.52516510e+01 
349 454.11 5.11072014e+02 1.53321604e+01 
350 454.91 5.19193905e+02 1.55758171e+01 
351 455.72 5.28138117e+02 1.58441435e+01 
352 456.52 5.35634228e+02 1.60690268e+01 
353 457.32 5.39105868e+02 1.61731760e+01 
354 458.13 5.38325562e+02 1.61497668e+01 
355 458.93 5.37520982e+02 1.61256294e+01 
356 459.74 5.40859476e+02 1.62257843e+01 
357 460.54 5.48099726e+02 1.64429918e+01 
358 461.34 5.56210679e+02 1.66863204e+01 
359 462.15 5.61707223e+02 1.68512167e+01 
360 462.95 5.62046403e+02 1.68613921e+01 
361 463.76 5.58560039e+02 1.67568012e+01 
362 464.56 5.54877432e+02 1.66463229e+01 
363 465.36 5.52286680e+02 1.65686004e+01 
364 466.17 5.51208426e+02 1.65362528e+01 
365 466.97 5.52213659e+02 1.65664098e+01 
366 467.77 5.55129735e+02 1.66538921e+01 
367 468.58 5.58413725e+02 1.67524118e+01 
368 469.38 5.59279922e+02 1.67783977e+01 
369 470.18 5.60121803e+02 1.68036541e+01 
370 470.99 5.65583442e+02 1.69675032e+01 
371 471.79 5.73970108e+02 1.72191032e+01 
372 472.59 5.81648284e+02 1.74494485e+01 
373 473.40 5.87082536e+02 1.76124761e+01 
374 474.20 5.90569568e+02 1.77170871e+01 
375 475.00 5.92903607e+02 1.77871082e+01 
376 475.81 5.94911528e+02 1.78473458e+01 
377 476.61 5.98474500e+02 1.79542350e+01 
378 477.41 6.04381869e+02 1.81314561e+01 
379 478.21 6.10337008e+02 1.83101102e+01 
380 479.02 6.14421318e+02 1.84326395e+01 
381 479.82 6.16693567e+02 1.85008070e+01 
382 480.62 6.19258205e+02 1.85777461e+01 
383 481.43 6.20444214e+02 1.86133264e+01 
384 482.23 6.19261319e+02 1.85778396e+01 
385 483.03 6.14849970e+02 1.84454991e+01 
386 483.84 6.04880161e+02 1.81464048e+01 
387 484.64 5.85642370e+02 1.75692711e+01 
388 485.44 5.62400513e+02 1.68720154e+01 
389 486.24 5.48827278e+02 1.64648183e+01 
390 487.05 5.51116366e+02 1.65334910e+01 
391 487.85 5.66465540e+02 1.69939662e+01 
392 488.65 5.85292521e+02 1.75587756e+01 
393 489.45 5.98205009e+02 1.79461503e+01 
394 490.26 6.02576659e+02 1.80772998e+01 
395 491.06 6.00580866e+02 1.80174260e+01 
396 491.86 5.96552395e+02 1.78965719e+01 
397 492.66 5.96175110e+02 1.78852533e+01 
398 493.46 6.01798077e+02 1.80539423e+01 
399 494.27 6.08686336e+02 1.82605901e+01 
400 495.07 6.12623693e+02 1.83787108e+01 
401 495.87 6.14278145e+02 1.84283443e+01 
402 496.67 6.11882079e+02 1.83564624e+01 
403 497.48 6.07259910e+02 1.82177973e+01 
404 498.28 6.02469521e+02 1.80740856e+01 
405 499.08 5.96582963e+02 1.78974889e+01 
406 499.88 5.90100102e+02 1.77030031e+01 
407 500.68 5.84670365e+02 1.75401110e+01 
408 501.48 5.81964459e+02 1.74589338e+01 
409 502.29 5.83716945e+02 1.75115083e+01 
410 503.09 5.87776362e+02 1.76332909e+01 
411 503.89 5.93298306e+02 1.77989492e+01 
412 504.69 5.99800823e+02 1.79940247e+01 
413 505.49 6.04934821e+02 1.81480446e+01 
414 506.29 6.06308156e+02 1.81892447e+01 
415 507.09 6.03823179e+02 1.81146954e+01 
416 507.90 6.00590153e+02 1.80177046e+01 
417 508.70 5.99052633e+02 1.79715790e+01 
418 509.50 5.99356954e+02 1.79807086e+01 
419 510.30 6.00466415e+02 1.80139924e+01 
420 511.10 5.99433112e+02 1.79829934e+01 
421 511.90 5.95625153e+02 1.78687546e+01 
422 512.70 5.89448309e+02 1.76834493e+01 
423 513.51 5.82572632e+02 1.74771790e+01 
424 514.31 5.76830185e+02 1.73049056e+01 
425 515.11 5.68062178e+02 1.70418653e+01 
426 515.91 5.53555323e+02 1.66066597e+01 
427 516.71 5.38806315e+02 1.61641895e+01 
428 517.51 5.30254324e+02 1.59076297e+01 
429 518.31 5.33468941e+02 1.60040682e+01 
430 519.11 5.46282862e+02 1.63884859e+01 
431 519.91 5.59779273e+02 1.67933782e+01 
432 520.71 5.69894538e+02 1.70968362e+01 
433 521.51 5.74211538e+02 1.72263461e+01 
434 522.32 5.76438297e+02 1.72931489e+01 
435 523.12 5.80477473e+02 1.74143242e+01 
436 523.92 5.84590221e+02 1.75377066e+01 
437 524.72 5.84572738e+02 1.75371822e+01 
438 525.52 5.76847254e+02 1.73054176e+01 
439 526.32 5.66988963e+02 1.70096689e+01 
440 527.12 5.64812981e+02 1.69443894e+01 
441 527.92 5.72003197e+02 1.71600959e+01 
442 528.72 5.84701044e+02 1.75410313e+01 
443 529.52 5.96071412e+02 1.78821423e+01 
444 530.32 6.01194471e+02 1.80358341e+01 
445 531.12 5.99151623e+02 1.79745487e+01 
446 531.92 5.93560999e+02 1.78068300e+01 
447 532.72 5.88343134e+02 1.76502940e+01 
448 533.52 5.87400365e+02 1.76220109e+01 
449 534.32 5.91717477e+02 1.77515243e+01 
450 535.12 5.96508931e+02 1.78952679e+01 
451 535.92 5.97615551e+02 1.79284665e+01 
452 536.72 5.96331417e+02 1.78899425e+01 
453 537.52 5.93644797e+02 1.78093439e+01 
454 538.32 5.89661944e+02 1.76898583e+01 
455 539.12 5.84733892e+02 1.75420168e+01 
456 539.92 5.80104429e+02 1.74031329e+01 
457 540.72 5.78252793e+02 1.73475838e+01 
458 541.52 5.79704099e+02 1.73911230e+01 
459 542.32 5.83996633e+02 1.75198990e+01 
460 543.12 5.88433516e+02 1.76530055e+01 
461 543.92 5.91519795e+02 1.77455938e+01 
462 544.72 5.93503599e+02 1.78051080e+01 
463 545.52 5.93295149e+02 1.77988545e+01 
464 546.31 5.90602146e+02 1.77180644e+01 
465 547.12 5.87331368e+02 1.76199410e+01 
466 547.91 5.85416556e+02 1.75624967e+01 
467 548.71 5.85032987e+02 1.75509896e+01 
468 549.51 5.85486133e+02 1.75645840e+01 
469 550.31 5.85481441e+02 1.75644432e+01 
470 551.11 5.84854134e+02 1.75456240e+01 
471 551.91 5.84269305e+02 1.75280791e+01 
472 552.71 5.84145636e+02 1.75243691e+01 
