% C0 (TOA Count Rate, /ms) for 4STAR NIR spectrometer (512 channels) derived from 20160109-20160113 and recorded on 2016-02-01 09:28:51.
% Refined Langley processed excluding "bump" region at ~2.5 airmass for each of the days (20160109-20160113, excluding 20160111) with FORJ correction
Pix Wavelength C0 C0err
511 949.79 4.98467269e+00 1.65368446e-01 
510 949.79 5.16567146e+00 1.62274192e-01 
509 951.68 5.54942943e+00 1.58294762e-01 
508 953.57 5.61770080e+00 1.55993492e-01 
507 955.46 6.09757626e+00 1.56395699e-01 
506 957.34 6.21474221e+00 1.47951526e-01 
505 959.22 6.71348258e+00 1.42827192e-01 
504 961.10 6.82002559e+00 1.33297367e-01 
503 962.98 7.28470428e+00 1.17431381e-01 
502 964.85 7.30355133e+00 1.03235445e-01 
501 966.72 7.84219487e+00 8.61287997e-02 
500 968.59 7.89318863e+00 7.17560722e-02 
499 970.45 8.30948556e+00 7.03917556e-02 
498 972.32 8.26003776e+00 7.15123855e-02 
497 974.18 8.60564409e+00 8.03289832e-02 
496 976.04 8.52334172e+00 7.37471851e-02 
495 977.89 8.88156173e+00 6.74896997e-02 
494 979.74 8.80273657e+00 5.87385344e-02 
493 981.59 9.09229444e+00 5.32762713e-02 
492 983.44 8.99375416e+00 3.39546300e-02 
491 985.29 9.24230690e+00 2.89335987e-02 
490 987.13 9.03961318e+00 1.97563717e-02 
489 988.97 9.28351827e+00 2.40767778e-02 
488 990.81 9.08186064e+00 1.55775178e-02 
487 992.65 9.25518828e+00 8.57029813e-03 
486 994.48 9.06770492e+00 1.30866485e-02 
485 996.31 9.20980200e+00 1.32140607e-02 
484 998.14 8.96991172e+00 1.40033652e-02 
483 999.97 9.10223524e+00 1.23913502e-02 
482 1001.79 8.81934605e+00 9.71225668e-03 
481 1003.62 8.89528333e+00 1.45016668e-02 
480 1005.44 8.68691002e+00 9.44777018e-03 
479 1007.25 8.93290419e+00 2.80291445e-02 
478 1009.07 8.76137583e+00 2.58658152e-02 
477 1010.88 8.92145825e+00 2.69297633e-02 
476 1012.69 8.68163901e+00 2.39406554e-02 
475 1014.50 8.78887169e+00 2.81279196e-02 
474 1016.31 8.59267971e+00 3.15320182e-02 
473 1018.11 8.72142022e+00 3.91310223e-02 
472 1019.91 8.48893182e+00 2.76247395e-02 
471 1021.71 8.63635249e+00 2.89869391e-02 
470 1023.51 8.40567093e+00 2.38899806e-02 
469 1025.30 8.56273655e+00 2.30116960e-02 
468 1027.09 8.45723251e+00 1.52312643e-02 
467 1028.88 8.61061805e+00 1.87284423e-02 
466 1030.67 8.46593178e+00 1.43611355e-02 
465 1032.46 8.62999076e+00 1.39513729e-02 
464 1034.24 8.49542019e+00 2.21884438e-02 
463 1036.02 8.66354811e+00 2.33876010e-02 
462 1037.80 8.54727630e+00 1.67516215e-02 
461 1039.58 8.74151084e+00 1.34266255e-02 
460 1041.35 8.62081608e+00 1.16901885e-02 
459 1043.12 8.79068356e+00 1.05449266e-02 
458 1044.89 8.69975028e+00 1.21300814e-02 
457 1046.66 8.91456767e+00 9.74325165e-03 
456 1048.43 8.83962994e+00 7.91687725e-03 
455 1050.19 9.06468018e+00 6.58022835e-03 
454 1051.95 8.94585969e+00 1.45343690e-02 
453 1053.71 9.21705784e+00 1.80653220e-02 
452 1055.47 9.05478143e+00 1.47663143e-02 
451 1057.23 9.17810517e+00 2.52931627e-02 
450 1058.98 9.04498371e+00 2.53180730e-02 
449 1060.73 9.23754670e+00 2.46588338e-02 
448 1062.48 9.06781049e+00 2.70777855e-02 
447 1064.23 9.19618294e+00 3.62364910e-02 
446 1065.97 8.93845046e+00 2.42079780e-02 
445 1067.71 8.99143301e+00 2.55426942e-02 
444 1069.46 8.76514193e+00 2.49941119e-02 
443 1071.19 8.86677547e+00 3.23408091e-02 
442 1072.93 8.70838572e+00 2.76737508e-02 
441 1074.67 8.79466785e+00 3.20344267e-02 
440 1076.40 8.60075646e+00 3.19182543e-02 
439 1078.13 8.64292664e+00 3.54991062e-02 
438 1079.86 8.39908826e+00 4.16383822e-02 
437 1081.58 8.47134268e+00 3.77447456e-02 
436 1083.31 8.37036473e+00 3.77384703e-02 
435 1085.03 8.54936671e+00 3.40420427e-02 
434 1086.75 8.47312222e+00 3.34439024e-02 
433 1088.47 8.59509527e+00 2.98443952e-02 
432 1090.19 8.48499834e+00 3.58565086e-02 
431 1091.90 8.58985277e+00 3.20205599e-02 
430 1093.61 8.44112112e+00 3.52162343e-02 
429 1095.33 8.66117782e+00 4.24891665e-02 
428 1097.03 8.68834631e+00 4.39880127e-02 
427 1098.74 8.94935308e+00 4.85740872e-02 
426 1100.45 8.96749044e+00 5.41821328e-02 
425 1102.15 9.26048999e+00 7.36904934e-02 
424 1103.85 9.25225235e+00 7.80797591e-02 
423 1105.55 9.47801868e+00 7.85950332e-02 
422 1107.25 9.36893691e+00 9.82742704e-02 
421 1108.94 9.45508525e+00 1.40500476e-01 
420 1110.64 9.18069596e+00 1.70669611e-01 
419 1112.33 9.06767746e+00 2.30228794e-01 
418 1114.02 8.58296227e+00 3.01113407e-01 
417 1115.70 8.47950113e+00 3.52820109e-01 
416 1117.39 8.19145889e+00 3.83852054e-01 
415 1119.07 8.08812171e+00 4.11218287e-01 
414 1120.76 7.84702603e+00 4.25716278e-01 
413 1122.44 7.79615113e+00 4.56161205e-01 
412 1124.12 7.74590090e+00 4.58647539e-01 
411 1125.79 8.04257961e+00 4.48076227e-01 
410 1127.47 8.27458767e+00 4.19568310e-01 
409 1129.14 8.68929224e+00 3.74287252e-01 
408 1130.81 8.17143395e+00 3.97988399e-01 
407 1132.48 7.94084630e+00 4.16449079e-01 
406 1134.15 7.79305902e+00 4.08820049e-01 
405 1135.81 8.21465220e+00 3.55166009e-01 
404 1137.48 8.90456471e+00 2.60835873e-01 
403 1139.14 9.23880416e+00 2.36174630e-01 
402 1140.80 8.97317862e+00 2.63994227e-01 
401 1142.46 8.84178677e+00 3.05433232e-01 
400 1144.12 8.53366524e+00 3.46995636e-01 
399 1145.77 8.54688397e+00 3.51535739e-01 
398 1147.43 8.55379178e+00 3.29523934e-01 
397 1149.08 8.76736994e+00 2.84965390e-01 
396 1150.73 8.73405967e+00 2.71160118e-01 
395 1152.38 9.00638067e+00 2.50448400e-01 
394 1154.02 9.04433938e+00 2.22388156e-01 
393 1155.67 9.32826778e+00 1.94892761e-01 
392 1157.31 9.27058444e+00 1.59916509e-01 
391 1158.95 9.39423505e+00 1.44879237e-01 
390 1160.59 9.39236604e+00 1.17850296e-01 
389 1162.23 9.60508561e+00 1.09759116e-01 
388 1163.87 9.54826298e+00 1.03268102e-01 
387 1165.50 9.64001048e+00 8.84017131e-02 
386 1167.13 9.49841372e+00 8.37052261e-02 
385 1168.76 9.59116058e+00 7.08594792e-02 
384 1170.39 9.43518127e+00 8.05530745e-02 
383 1172.02 9.39775152e+00 7.18592295e-02 
382 1173.65 9.23952229e+00 7.91491722e-02 
381 1175.27 9.24427592e+00 7.15739599e-02 
380 1176.90 9.13903366e+00 5.89929713e-02 
379 1178.52 9.07056952e+00 7.55284634e-02 
378 1180.14 8.82402930e+00 8.60509869e-02 
377 1181.75 8.78292886e+00 8.10697376e-02 
376 1183.37 8.58302347e+00 8.21591508e-02 
375 1184.99 8.58756373e+00 7.90229422e-02 
374 1186.60 8.46571539e+00 6.90651979e-02 
373 1188.21 8.45339487e+00 5.74962197e-02 
372 1189.82 8.37139461e+00 4.91420647e-02 
371 1191.43 8.59269181e+00 3.83895209e-02 
370 1193.04 8.48914968e+00 3.52167053e-02 
369 1194.64 8.45279132e+00 4.51546626e-02 
368 1196.24 8.25468786e+00 3.86461799e-02 
367 1197.85 8.32649479e+00 5.20761656e-02 
366 1199.45 8.22853772e+00 5.47844096e-02 
365 1201.05 8.29268988e+00 6.02955216e-02 
364 1202.64 8.21413971e+00 5.34584607e-02 
363 1204.24 8.24811996e+00 5.10705084e-02 
362 1205.83 8.18647787e+00 4.52907426e-02 
361 1207.43 8.20058979e+00 3.82835890e-02 
360 1209.02 8.14677783e+00 4.06487467e-02 
359 1210.61 8.27343702e+00 3.85919287e-02 
358 1212.19 8.28012401e+00 3.78681092e-02 
357 1213.78 8.45857873e+00 1.80806914e-02 
356 1215.37 8.38645329e+00 2.73032795e-02 
355 1216.95 8.43777488e+00 3.85446828e-02 
354 1218.53 8.40221627e+00 3.69884139e-02 
353 1220.11 8.47720605e+00 3.28454330e-02 
352 1221.69 8.42762805e+00 3.12222239e-02 
351 1223.27 8.47669908e+00 3.29590348e-02 
350 1224.84 8.48051529e+00 2.78264754e-02 
349 1226.42 8.53512991e+00 2.61009700e-02 
348 1227.99 8.52174426e+00 1.45089101e-02 
347 1229.56 8.63385501e+00 2.03683220e-02 
346 1231.13 8.56606400e+00 1.82853003e-02 
345 1232.70 8.65580465e+00 1.98948866e-02 
344 1234.27 8.63593851e+00 2.75848164e-02 
343 1235.84 8.63951751e+00 1.70658482e-02 
342 1237.40 8.57422360e+00 1.46480317e-02 
341 1238.96 8.56341653e+00 1.21770396e-02 
340 1240.52 8.40583838e+00 1.53147896e-02 
339 1242.08 8.51446016e+00 1.12147319e-02 
338 1243.64 8.51096263e+00 1.76292238e-02 
337 1245.20 8.55911621e+00 1.54739018e-02 
336 1246.75 8.53577208e+00 1.94842974e-02 
335 1248.31 8.61276948e+00 1.70799470e-02 
334 1249.86 8.54803873e+00 1.74434221e-02 
333 1251.41 8.58937380e+00 9.51071622e-03 
332 1252.96 8.50710372e+00 1.32072885e-02 
331 1254.51 8.50794077e+00 2.10415586e-02 
330 1256.06 8.42983534e+00 2.31407925e-02 
329 1257.61 8.39309055e+00 2.32688840e-02 
328 1259.15 8.27380158e+00 3.01446022e-02 
327 1260.69 8.19303976e+00 3.72601272e-02 
326 1262.23 8.01795582e+00 3.59514961e-02 
325 1263.77 7.95464617e+00 4.26648633e-02 
324 1265.31 7.72100484e+00 5.62922189e-02 
323 1266.85 7.71724850e+00 4.93556016e-02 
322 1268.39 7.78851577e+00 4.83907218e-02 
321 1269.92 7.93091297e+00 5.19289346e-02 
320 1271.46 8.18926940e+00 4.51476067e-02 
319 1272.99 8.30015032e+00 5.33982841e-02 
318 1274.52 8.28625904e+00 5.30379846e-02 
317 1276.05 8.35088925e+00 4.85445997e-02 
316 1277.58 8.20734368e+00 4.10726154e-02 
315 1279.10 8.05815937e+00 3.41645458e-02 
314 1280.63 7.98315072e+00 3.70554635e-02 
313 1282.15 7.97763382e+00 3.73375143e-02 
312 1283.68 8.07285120e+00 2.62001966e-02 
311 1285.20 8.28442367e+00 1.39042191e-02 
310 1286.72 8.26305869e+00 1.11822821e-02 
309 1288.24 8.28247791e+00 1.49197454e-02 
308 1289.75 8.19223667e+00 7.70946368e-03 
307 1291.27 8.22469238e+00 1.51313707e-02 
306 1292.78 8.25791184e+00 2.95186287e-02 
305 1294.30 8.26894331e+00 4.12866584e-02 
304 1295.81 8.18901736e+00 3.91106384e-02 
303 1297.32 8.16536507e+00 3.86659942e-02 
302 1298.83 8.09267267e+00 3.05348759e-02 
301 1300.34 8.03443088e+00 3.97602297e-02 
300 1301.85 7.96837201e+00 4.46679056e-02 
299 1303.35 7.91070045e+00 4.79016230e-02 
298 1304.86 7.81787384e+00 5.44251844e-02 
297 1306.36 7.79141742e+00 5.95138650e-02 
296 1307.86 7.73774398e+00 5.68632091e-02 
295 1309.36 7.64315576e+00 6.72867853e-02 
294 1310.86 7.53428853e+00 7.61215908e-02 
293 1312.36 7.45980984e+00 7.11236497e-02 
292 1313.86 7.41921213e+00 7.96010898e-02 
291 1315.36 7.44093435e+00 8.14374955e-02 
290 1316.85 7.39205153e+00 9.11640378e-02 
289 1318.34 7.37927238e+00 9.37014533e-02 
288 1319.84 7.31692197e+00 1.15885251e-01 
287 1321.33 7.30099795e+00 1.07167529e-01 
286 1322.82 7.24157678e+00 1.04864086e-01 
285 1324.30 7.18643346e+00 1.04841769e-01 
284 1325.79 7.03838671e+00 1.14353629e-01 
283 1327.28 6.89510839e+00 1.29663391e-01 
282 1328.76 6.67615743e+00 1.69610469e-01 
281 1330.25 6.58089786e+00 1.80919330e-01 
280 1331.73 6.52876226e+00 1.86341088e-01 
279 1333.21 6.51761125e+00 1.87852549e-01 
278 1334.69 6.47706307e+00 1.77051401e-01 
277 1336.17 6.39601551e+00 1.65639886e-01 
276 1337.65 6.29568022e+00 1.64333189e-01 
275 1339.12 6.24231985e+00 1.63264503e-01 
274 1340.60 6.14462105e+00 1.83561002e-01 
273 1342.07 6.02528817e+00 2.15658742e-01 
272 1343.55 5.78671686e+00 2.38196593e-01 
271 1345.02 5.24582807e+00 2.90113269e-01 
270 1346.49 4.88339473e+00 3.23699579e-01 
269 1347.96 4.47273377e+00 3.75185663e-01 
268 1349.43 4.06400829e+00 4.07499778e-01 
267 1350.89 3.64023570e+00 4.52042576e-01 
266 1352.36 3.06727792e+00 4.84392376e-01 
265 1353.82 2.75229079e+00 5.19534275e-01 
264 1355.29 2.17114298e+00 7.42754153e-01 
263 1356.75 2.17126179e+00 5.37805744e-01 
262 1358.21 1.81164935e+00 4.79956323e-01 
261 1359.67 1.05686036e+00 7.35986787e-01 
260 1361.13 9.06791116e-01 6.62238714e-01 
259 1362.59 1.04480931e+00 6.06871928e-01 
258 1364.04 1.41980797e+00 4.25043976e-01 
257 1365.50 1.39407868e+00 4.57594467e-01 
256 1366.95 8.07475036e-01 6.52718493e-01 
255 1368.41 9.44024650e-01 7.43703465e-01 
254 1369.86 1.27655899e+00 5.43415251e-01 
253 1371.31 1.58620756e+00 4.53264009e-01 
252 1372.76 1.21136126e+00 7.40953849e-01 
251 1374.21 2.00741009e+00 3.89158650e-01 
250 1375.65 2.05976357e+00 3.62068138e-01 
249 1377.10 1.90625290e+00 3.05037117e-01 
248 1378.55 1.38370182e+00 4.24355373e-01 
247 1379.99 1.16340433e+00 2.94832425e-01 
246 1381.43 5.66190357e-01 4.14056941e-01 
245 1382.87 9.22509904e-01 3.47450945e-01 
244 1384.32 1.07064147e+00 3.41748885e-01 
243 1385.75 1.38529738e+00 2.95194722e-01 
242 1387.19 1.78839187e+00 2.90365716e-01 
241 1388.63 1.96297280e+00 2.80906947e-01 
240 1390.07 2.05543983e+00 2.79708184e-01 
239 1391.50 1.94934374e+00 2.99645392e-01 
238 1392.94 1.12369268e+00 5.53639729e-01 
237 1394.37 1.56164191e+00 2.92655502e-01 
236 1395.80 1.73030581e+00 2.91482037e-01 
235 1397.23 1.61984154e+00 2.94023893e-01 
234 1398.66 1.52380450e+00 4.99943658e-01 
233 1400.09 1.91720528e+00 3.16670154e-01 
232 1401.52 1.73382928e+00 3.18891169e-01 
231 1402.94 1.97101184e+00 3.02426616e-01 
230 1404.37 2.12604037e+00 3.04026721e-01 
229 1405.79 1.99766009e+00 2.89030302e-01 
228 1407.22 2.08438027e+00 2.89212413e-01 
227 1408.64 2.23743493e+00 3.09878006e-01 
226 1410.06 2.41186218e+00 3.12355116e-01 
225 1411.48 2.41404752e+00 3.35111408e-01 
224 1412.90 2.59702529e+00 3.27242070e-01 
223 1414.32 2.76280907e+00 2.96809937e-01 
222 1415.73 2.68034028e+00 3.05508100e-01 
221 1417.15 2.73772594e+00 3.03007741e-01 
220 1418.56 2.88073803e+00 3.00529317e-01 
219 1419.98 2.83209575e+00 3.02993878e-01 
218 1421.39 2.99144894e+00 2.85978016e-01 
217 1422.80 3.22272561e+00 2.65031181e-01 
216 1424.21 3.28612233e+00 2.65874734e-01 
215 1425.62 3.28942220e+00 2.82091400e-01 
214 1427.03 3.39700501e+00 2.72665241e-01 
213 1428.44 3.20240905e+00 2.62085582e-01 
212 1429.84 3.00799750e+00 2.36849170e-01 
211 1431.25 2.99516752e+00 2.17485059e-01 
210 1432.65 2.98322246e+00 2.25028870e-01 
209 1434.06 3.08612482e+00 2.31724523e-01 
208 1435.46 3.21143047e+00 2.49901440e-01 
207 1436.86 3.26373050e+00 2.38584201e-01 
206 1438.26 3.29823197e+00 2.39880941e-01 
205 1439.66 3.34742304e+00 2.13844576e-01 
204 1441.05 3.52148500e+00 2.05134145e-01 
203 1442.45 3.46765018e+00 2.08185116e-01 
202 1443.85 3.49810108e+00 2.03400138e-01 
201 1445.24 3.62728406e+00 2.02310734e-01 
200 1446.64 3.66094841e+00 2.07033968e-01 
199 1448.03 3.57722273e+00 2.23927870e-01 
198 1449.42 3.67423997e+00 2.28272559e-01 
197 1450.81 3.68736557e+00 2.18994117e-01 
196 1452.20 3.74091723e+00 1.92274857e-01 
195 1453.59 4.02940678e+00 1.59949673e-01 
194 1454.97 4.23844535e+00 1.32938097e-01 
193 1456.36 4.28007548e+00 1.22949890e-01 
192 1457.75 4.32506515e+00 1.27434852e-01 
191 1459.13 4.27879670e+00 1.33172470e-01 
190 1460.51 4.22162965e+00 1.49459504e-01 
189 1461.90 4.05788938e+00 1.59900133e-01 
188 1463.28 3.97386588e+00 1.74000344e-01 
187 1464.66 3.86217160e+00 1.77036983e-01 
186 1466.04 3.89843584e+00 1.79409572e-01 
185 1467.41 3.75404779e+00 2.09517635e-01 
184 1468.79 3.67386230e+00 2.12975102e-01 
183 1470.17 3.61639569e+00 2.13408702e-01 
182 1471.54 3.65759020e+00 2.02489733e-01 
181 1472.92 3.76359110e+00 1.84610177e-01 
180 1474.29 3.92260468e+00 1.67501021e-01 
179 1475.66 3.95374441e+00 1.60936664e-01 
178 1477.03 3.89719648e+00 1.59699428e-01 
177 1478.40 3.86201194e+00 1.77939349e-01 
176 1479.77 3.93782717e+00 1.60659112e-01 
175 1481.14 3.96336153e+00 1.49578756e-01 
174 1482.51 4.07405247e+00 1.33369781e-01 
173 1483.87 4.05986863e+00 1.31489558e-01 
172 1485.24 4.02958249e+00 1.36178191e-01 
171 1486.60 3.98989270e+00 1.29858802e-01 
170 1487.96 4.04506501e+00 1.16667456e-01 
169 1489.32 4.06546941e+00 9.40397407e-02 
168 1490.69 4.23138044e+00 7.92148676e-02 
167 1492.04 4.25088761e+00 7.69580547e-02 
166 1493.40 4.31340747e+00 7.39560543e-02 
165 1494.76 4.29140496e+00 7.36488526e-02 
164 1496.12 4.32488255e+00 6.50679897e-02 
163 1497.47 4.29582954e+00 6.13406665e-02 
162 1498.83 4.37663893e+00 4.57104150e-02 
161 1500.18 4.21725428e+00 4.82387452e-02 
160 1501.53 4.14457864e+00 5.25788358e-02 
159 1502.89 4.03943717e+00 5.28085313e-02 
158 1504.24 4.08553665e+00 5.24365808e-02 
157 1505.59 4.11771654e+00 5.43441335e-02 
156 1506.93 4.24319957e+00 4.67218450e-02 
155 1508.28 4.27753250e+00 4.08483626e-02 
154 1509.63 4.32869288e+00 4.00474565e-02 
153 1510.97 4.29271042e+00 3.90464927e-02 
152 1512.32 4.36245642e+00 3.66368459e-02 
151 1513.66 4.29014969e+00 3.93773659e-02 
150 1515.00 4.34918995e+00 3.80131511e-02 
149 1516.34 4.30681542e+00 3.59912336e-02 
148 1517.69 4.31047613e+00 2.82751168e-02 
147 1519.02 4.23290745e+00 2.28714893e-02 
146 1520.36 4.23977117e+00 2.21773827e-02 
145 1521.70 4.17794883e+00 2.30615518e-02 
144 1523.04 4.24973893e+00 1.64904207e-02 
143 1524.37 4.21549066e+00 1.06438147e-02 
142 1525.71 4.27648116e+00 5.01522655e-03 
141 1527.04 4.21994110e+00 1.16852766e-02 
140 1528.37 4.23239105e+00 1.48304466e-02 
139 1529.70 4.14720061e+00 6.37722720e-03 
138 1531.03 4.18386966e+00 6.86568623e-03 
137 1532.36 4.12356350e+00 1.19942259e-02 
136 1533.69 4.15270035e+00 7.31733706e-03 
135 1535.02 4.06639552e+00 1.11628006e-02 
134 1536.34 4.08954513e+00 9.25392383e-03 
133 1537.67 4.03831704e+00 9.94927763e-03 
132 1538.99 4.07547742e+00 1.16055453e-02 
131 1540.31 4.03435918e+00 2.08450784e-02 
130 1541.64 4.08320334e+00 1.16570969e-02 
129 1542.96 4.04806336e+00 1.29666042e-02 
128 1544.28 4.08243670e+00 1.44045094e-02 
127 1545.60 3.99576789e+00 1.33571459e-02 
126 1546.91 4.04134411e+00 1.07727215e-02 
125 1548.23 3.95235204e+00 1.77352338e-02 
124 1549.55 3.99631667e+00 1.33266760e-02 
123 1550.86 3.92017424e+00 1.72497571e-02 
122 1552.18 3.93825867e+00 9.42115644e-03 
121 1553.49 3.88782298e+00 9.62475315e-03 
120 1554.80 3.93838854e+00 1.17640337e-02 
119 1556.11 3.85412409e+00 1.08345032e-02 
118 1557.42 3.88597861e+00 1.11259922e-02 
117 1558.73 3.80933888e+00 2.12699048e-02 
116 1560.04 3.83252741e+00 1.87876084e-02 
115 1561.34 3.74059212e+00 2.22502139e-02 
114 1562.65 3.79350139e+00 2.05071326e-02 
113 1563.95 3.71377347e+00 1.95562549e-02 
112 1565.26 3.77027417e+00 2.79533941e-02 
111 1566.56 3.65512684e+00 2.66431503e-02 
110 1567.86 3.67090535e+00 2.75687122e-02 
109 1569.16 3.56344664e+00 3.35042904e-02 
108 1570.46 3.54921408e+00 3.46108775e-02 
107 1571.76 3.44849405e+00 4.36293775e-02 
106 1573.05 3.42073121e+00 4.06395637e-02 
105 1574.35 3.30479334e+00 3.56553439e-02 
104 1575.64 3.32956111e+00 3.50557452e-02 
103 1576.94 3.29251533e+00 3.46416760e-02 
102 1578.23 3.37118117e+00 2.37709204e-02 
101 1579.52 3.36318570e+00 2.61611470e-02 
100 1580.81 3.44077978e+00 2.53950913e-02 
99 1582.10 3.38365918e+00 2.50003054e-02 
98 1583.39 3.44262958e+00 2.90283475e-02 
97 1584.68 3.35348686e+00 2.81188669e-02 
96 1585.97 3.33939385e+00 2.64885913e-02 
95 1587.25 3.24263104e+00 2.62414353e-02 
94 1588.54 3.25654589e+00 2.29772514e-02 
93 1589.82 3.18801081e+00 2.29694319e-02 
92 1591.10 3.27730744e+00 2.70523214e-02 
91 1592.38 3.23533371e+00 3.61586386e-02 
90 1593.66 3.29569619e+00 3.67648849e-02 
89 1594.94 3.21875827e+00 3.58792597e-02 
88 1596.22 3.23608603e+00 2.82393603e-02 
87 1597.50 3.12515855e+00 2.93119521e-02 
86 1598.77 3.12441449e+00 3.17796844e-02 
85 1600.05 3.00630531e+00 2.95292492e-02 
84 1601.32 3.03445266e+00 2.82588808e-02 
83 1602.59 2.95533042e+00 2.75135684e-02 
82 1603.86 3.01595227e+00 2.69797519e-02 
81 1605.13 2.92062600e+00 2.63628163e-02 
80 1606.40 2.97965010e+00 3.32953682e-02 
79 1607.67 2.87137659e+00 3.06038493e-02 
78 1608.94 2.91973175e+00 2.29359451e-02 
77 1610.20 2.85765566e+00 2.56859448e-02 
76 1611.47 2.93100693e+00 2.03779624e-02 
75 1612.73 2.87564028e+00 2.50996942e-02 
74 1614.00 2.93356525e+00 2.10015625e-02 
73 1615.26 2.84765424e+00 1.79031583e-02 
72 1616.52 2.87963112e+00 1.92401229e-02 
71 1617.78 2.77720735e+00 1.82607109e-02 
70 1619.03 2.81742103e+00 1.56852123e-02 
69 1620.29 2.74840539e+00 2.36520683e-02 
68 1621.55 2.81046657e+00 3.13839620e-02 
67 1622.80 2.74867665e+00 2.18630010e-02 
66 1624.06 2.81479840e+00 2.30829736e-02 
65 1625.31 2.71965128e+00 2.72319306e-02 
64 1626.56 2.78094632e+00 1.89046368e-02 
63 1627.81 2.67285836e+00 2.50286686e-02 
62 1629.06 2.68611009e+00 2.12289086e-02 
61 1630.31 2.59877175e+00 1.43424837e-02 
60 1631.56 2.62304936e+00 2.00947942e-02 
59 1632.80 2.53101418e+00 1.88644003e-02 
58 1634.05 2.56941205e+00 2.32653678e-02 
57 1635.29 2.45283614e+00 1.73242449e-02 
56 1636.53 2.47061802e+00 2.48513064e-02 
55 1637.77 2.34044174e+00 1.43840810e-02 
54 1639.01 2.35464383e+00 1.94028041e-02 
53 1640.25 2.27326300e+00 1.83322151e-02 
