% C0 (TOA Count Rate, /ms) for 4STAR NIR spectrometer (512 channels) derived from 20160109starsun.mat and recorded on 2016-01-09 20:56:04.
% Data outside 2.0x the STD of 501 nm Langley residuals were screened out.
Pix Wavelength C0 C0err
511 949.79 4.87102339e+00 1.46130702e-01 
510 949.79 5.04402896e+00 1.51320869e-01 
509 951.68 5.43242695e+00 1.62972809e-01 
508 953.57 5.49835144e+00 1.64950543e-01 
507 955.46 5.97798322e+00 1.79339497e-01 
506 957.34 6.09350567e+00 1.82805170e-01 
505 959.22 6.60235078e+00 1.98070523e-01 
504 961.10 6.71637357e+00 2.01491207e-01 
503 962.98 7.19318344e+00 2.15795503e-01 
502 964.85 7.23577813e+00 2.17073344e-01 
501 966.72 7.80160293e+00 2.34048088e-01 
500 968.59 7.87427557e+00 2.36228267e-01 
499 970.45 8.28754371e+00 2.48626311e-01 
498 972.32 8.23695867e+00 2.47108760e-01 
497 974.18 8.57616005e+00 2.57284802e-01 
496 976.04 8.50294329e+00 2.55088299e-01 
495 977.89 8.86588626e+00 2.65976588e-01 
494 979.74 8.79893956e+00 2.63968187e-01 
493 981.59 9.09033710e+00 2.72710113e-01 
492 983.44 8.99086989e+00 2.69726097e-01 
491 985.29 9.25056187e+00 2.77516856e-01 
490 987.13 9.05851644e+00 2.71755493e-01 
489 988.97 9.30120538e+00 2.79036161e-01 
488 990.81 9.09795932e+00 2.72938780e-01 
487 992.65 9.26194833e+00 2.77858450e-01 
486 994.48 9.07571395e+00 2.72271419e-01 
485 996.31 9.22815876e+00 2.76844763e-01 
484 998.14 8.98678376e+00 2.69603513e-01 
483 999.97 9.14937452e+00 2.74481235e-01 
482 1001.79 8.87705631e+00 2.66311689e-01 
481 1003.62 8.95330778e+00 2.68599233e-01 
480 1005.44 8.74833698e+00 2.62450109e-01 
479 1007.25 9.00615671e+00 2.70184701e-01 
478 1009.07 8.82373842e+00 2.64712153e-01 
477 1010.88 8.98797458e+00 2.69639237e-01 
476 1012.69 8.72611699e+00 2.61783510e-01 
475 1014.50 8.84554613e+00 2.65366384e-01 
474 1016.31 8.62298363e+00 2.58689509e-01 
473 1018.11 8.75943995e+00 2.62783198e-01 
472 1019.91 8.51520077e+00 2.55456023e-01 
471 1021.71 8.65570931e+00 2.59671279e-01 
470 1023.51 8.42645385e+00 2.52793615e-01 
469 1025.30 8.59472115e+00 2.57841635e-01 
468 1027.09 8.48310583e+00 2.54493175e-01 
467 1028.88 8.63590365e+00 2.59077109e-01 
466 1030.67 8.47327906e+00 2.54198372e-01 
465 1032.46 8.63822454e+00 2.59146736e-01 
464 1034.24 8.50519162e+00 2.55155749e-01 
463 1036.02 8.68627151e+00 2.60588145e-01 
462 1037.80 8.57631365e+00 2.57289410e-01 
461 1039.58 8.78781008e+00 2.63634302e-01 
460 1041.35 8.65001429e+00 2.59500429e-01 
459 1043.12 8.81217227e+00 2.64365168e-01 
458 1044.89 8.73262316e+00 2.61978695e-01 
457 1046.66 8.95274428e+00 2.68582329e-01 
456 1048.43 8.89476656e+00 2.66842997e-01 
455 1050.19 9.12676396e+00 2.73802919e-01 
454 1051.95 8.98905855e+00 2.69671756e-01 
453 1053.71 9.24935130e+00 2.77480539e-01 
452 1055.47 9.09545418e+00 2.72863625e-01 
451 1057.23 9.23709664e+00 2.77112899e-01 
450 1058.98 9.09762643e+00 2.72928793e-01 
449 1060.73 9.28786462e+00 2.78635939e-01 
448 1062.48 9.09943058e+00 2.72982917e-01 
447 1064.23 9.25368354e+00 2.77610506e-01 
446 1065.97 8.97699026e+00 2.69309708e-01 
445 1067.71 9.03187387e+00 2.70956216e-01 
444 1069.46 8.79382726e+00 2.63814818e-01 
443 1071.19 8.89165878e+00 2.66749763e-01 
442 1072.93 8.71196335e+00 2.61358900e-01 
441 1074.67 8.77991417e+00 2.63397425e-01 
440 1076.40 8.58105149e+00 2.57431545e-01 
439 1078.13 8.63652566e+00 2.59095770e-01 
438 1079.86 8.38517809e+00 2.51555343e-01 
437 1081.58 8.46871466e+00 2.54061440e-01 
436 1083.31 8.36056456e+00 2.50816937e-01 
435 1085.03 8.54780250e+00 2.56434075e-01 
434 1086.75 8.48266218e+00 2.54479865e-01 
433 1088.47 8.62127687e+00 2.58638306e-01 
432 1090.19 8.50189771e+00 2.55056931e-01 
431 1091.90 8.59312659e+00 2.57793798e-01 
430 1093.61 8.44581684e+00 2.53374505e-01 
429 1095.33 8.65785407e+00 2.59735622e-01 
428 1097.03 8.69467879e+00 2.60840364e-01 
427 1098.74 8.93202519e+00 2.67960756e-01 
426 1100.45 8.94408667e+00 2.68322600e-01 
425 1102.15 9.23295229e+00 2.76988569e-01 
424 1103.85 9.21257947e+00 2.76377384e-01 
423 1105.55 9.43325743e+00 2.82997723e-01 
422 1107.25 9.32293868e+00 2.79688160e-01 
421 1108.94 9.40552138e+00 2.82165641e-01 
420 1110.64 9.11033422e+00 2.73310027e-01 
419 1112.33 8.93737078e+00 2.68121123e-01 
418 1114.02 8.37785020e+00 2.51335506e-01 
417 1115.70 8.20897093e+00 2.46269128e-01 
416 1117.39 7.87228665e+00 2.36168599e-01 
415 1119.07 7.75358165e+00 2.32607450e-01 
414 1120.76 7.51583809e+00 2.25475143e-01 
413 1122.44 7.46612569e+00 2.23983771e-01 
412 1124.12 7.40899287e+00 2.22269786e-01 
411 1125.79 7.68393576e+00 2.30518073e-01 
410 1127.47 7.94064048e+00 2.38219214e-01 
409 1129.14 8.39564099e+00 2.51869230e-01 
408 1130.81 7.88242938e+00 2.36472882e-01 
407 1132.48 7.63616193e+00 2.29084858e-01 
406 1134.15 7.48526221e+00 2.24557866e-01 
405 1135.81 7.93761517e+00 2.38128455e-01 
404 1137.48 8.66464408e+00 2.59939323e-01 
403 1139.14 9.02281910e+00 2.70684573e-01 
402 1140.80 8.73717253e+00 2.62115176e-01 
401 1142.46 8.57751355e+00 2.57325406e-01 
400 1144.12 8.23173683e+00 2.46952105e-01 
399 1145.77 8.23813650e+00 2.47144095e-01 
398 1147.43 8.28847961e+00 2.48654388e-01 
397 1149.08 8.56002277e+00 2.56800683e-01 
396 1150.73 8.56157889e+00 2.56847367e-01 
395 1152.38 8.84912721e+00 2.65473816e-01 
394 1154.02 8.90930490e+00 2.67279147e-01 
393 1155.67 9.22433539e+00 2.76730062e-01 
392 1157.31 9.18382968e+00 2.75514891e-01 
391 1158.95 9.35368722e+00 2.80610616e-01 
390 1160.59 9.36651340e+00 2.80995402e-01 
389 1162.23 9.57089348e+00 2.87126804e-01 
388 1163.87 9.52848437e+00 2.85854531e-01 
387 1165.50 9.61259191e+00 2.88377757e-01 
386 1167.13 9.50173503e+00 2.85052051e-01 
385 1168.76 9.61088396e+00 2.88326519e-01 
384 1170.39 9.46466658e+00 2.83939997e-01 
383 1172.02 9.44606992e+00 2.83382098e-01 
382 1173.65 9.28068687e+00 2.78420606e-01 
381 1175.27 9.26860140e+00 2.78058042e-01 
380 1176.90 9.14835723e+00 2.74450717e-01 
379 1178.52 9.06543459e+00 2.71963038e-01 
378 1180.14 8.80687071e+00 2.64206121e-01 
377 1181.75 8.75457377e+00 2.62637213e-01 
376 1183.37 8.56105411e+00 2.56831623e-01 
375 1184.99 8.56245680e+00 2.56873704e-01 
374 1186.60 8.43765318e+00 2.53129595e-01 
373 1188.21 8.42342058e+00 2.52702617e-01 
372 1189.82 8.35390048e+00 2.50617015e-01 
371 1191.43 8.57197748e+00 2.57159324e-01 
370 1193.04 8.47535670e+00 2.54260701e-01 
369 1194.64 8.44791455e+00 2.53437436e-01 
368 1196.24 8.24312158e+00 2.47293647e-01 
367 1197.85 8.30841059e+00 2.49252318e-01 
366 1199.45 8.21894459e+00 2.46568338e-01 
365 1201.05 8.29784747e+00 2.48935424e-01 
364 1202.64 8.22441129e+00 2.46732339e-01 
363 1204.24 8.28281798e+00 2.48484540e-01 
362 1205.83 8.23309497e+00 2.46992849e-01 
361 1207.43 8.23883285e+00 2.47164985e-01 
360 1209.02 8.17591727e+00 2.45277518e-01 
359 1210.61 8.28976930e+00 2.48693079e-01 
358 1212.19 8.29630794e+00 2.48889238e-01 
357 1213.78 8.46899439e+00 2.54069832e-01 
356 1215.37 8.41063134e+00 2.52318940e-01 
355 1216.95 8.48245574e+00 2.54473672e-01 
354 1218.53 8.45531235e+00 2.53659370e-01 
353 1220.11 8.53707718e+00 2.56112315e-01 
352 1221.69 8.49430390e+00 2.54829117e-01 
351 1223.27 8.54157371e+00 2.56247211e-01 
350 1224.84 8.53496883e+00 2.56049065e-01 
349 1226.42 8.59956121e+00 2.57986836e-01 
348 1227.99 8.58414631e+00 2.57524389e-01 
347 1229.56 8.71362880e+00 2.61408864e-01 
346 1231.13 8.64651317e+00 2.59395395e-01 
345 1232.70 8.72402921e+00 2.61720876e-01 
344 1234.27 8.70312026e+00 2.61093608e-01 
343 1235.84 8.72158534e+00 2.61647560e-01 
342 1237.40 8.63982246e+00 2.59194674e-01 
341 1238.96 8.60602840e+00 2.58180852e-01 
340 1240.52 8.44622217e+00 2.53386665e-01 
339 1242.08 8.54606550e+00 2.56381965e-01 
338 1243.64 8.51683852e+00 2.55505156e-01 
337 1245.20 8.55879046e+00 2.56763714e-01 
336 1246.75 8.54135288e+00 2.56240586e-01 
335 1248.31 8.61126147e+00 2.58337844e-01 
334 1249.86 8.57307607e+00 2.57192282e-01 
333 1251.41 8.64549944e+00 2.59364983e-01 
332 1252.96 8.58399662e+00 2.57519899e-01 
331 1254.51 8.59456983e+00 2.57837095e-01 
330 1256.06 8.52035822e+00 2.55610747e-01 
329 1257.61 8.50362322e+00 2.55108697e-01 
328 1259.15 8.39705826e+00 2.51911748e-01 
327 1260.69 8.34417715e+00 2.50325315e-01 
326 1262.23 8.19361958e+00 2.45808588e-01 
325 1263.77 8.14151488e+00 2.44245446e-01 
324 1265.31 7.97100159e+00 2.39130048e-01 
323 1266.85 7.97535454e+00 2.39260636e-01 
322 1268.39 8.02275853e+00 2.40682756e-01 
321 1269.92 8.12420479e+00 2.43726144e-01 
320 1271.46 8.30586481e+00 2.49175944e-01 
319 1272.99 8.38350489e+00 2.51505147e-01 
318 1274.52 8.36684480e+00 2.51005344e-01 
317 1276.05 8.43127561e+00 2.52938268e-01 
316 1277.58 8.26673976e+00 2.48002193e-01 
315 1279.10 8.09587185e+00 2.42876156e-01 
314 1280.63 8.02643863e+00 2.40793159e-01 
313 1282.15 8.02090307e+00 2.40627092e-01 
312 1283.68 8.10475814e+00 2.43142744e-01 
311 1285.20 8.30698190e+00 2.49209457e-01 
310 1286.72 8.28059919e+00 2.48417976e-01 
309 1288.24 8.29500844e+00 2.48850253e-01 
308 1289.75 8.20436506e+00 2.46130952e-01 
307 1291.27 8.23994042e+00 2.47198212e-01 
306 1292.78 8.28077857e+00 2.48423357e-01 
305 1294.30 8.29119365e+00 2.48735809e-01 
304 1295.81 8.20572870e+00 2.46171861e-01 
303 1297.32 8.19042290e+00 2.45712687e-01 
302 1298.83 8.12125717e+00 2.43637715e-01 
301 1300.34 8.03712564e+00 2.41113769e-01 
300 1301.85 7.96479065e+00 2.38943720e-01 
299 1303.35 7.89397202e+00 2.36819161e-01 
298 1304.86 7.78860369e+00 2.33658111e-01 
297 1306.36 7.76179039e+00 2.32853712e-01 
296 1307.86 7.72418002e+00 2.31725401e-01 
295 1309.36 7.63132595e+00 2.28939779e-01 
294 1310.86 7.51191965e+00 2.25357590e-01 
293 1312.36 7.43798070e+00 2.23139421e-01 
292 1313.86 7.38654298e+00 2.21596289e-01 
291 1315.36 7.40255753e+00 2.22076726e-01 
290 1316.85 7.35527826e+00 2.20658348e-01 
289 1318.34 7.32883940e+00 2.19865182e-01 
288 1319.84 7.24683805e+00 2.17405141e-01 
287 1321.33 7.24478613e+00 2.17343584e-01 
286 1322.82 7.18807270e+00 2.15642181e-01 
285 1324.30 7.13932310e+00 2.14179693e-01 
284 1325.79 6.98425101e+00 2.09527530e-01 
283 1327.28 6.82580510e+00 2.04774153e-01 
282 1328.76 6.57118738e+00 1.97135621e-01 
281 1330.25 6.47452800e+00 1.94235840e-01 
280 1331.73 6.42220128e+00 1.92666038e-01 
279 1333.21 6.40740691e+00 1.92222207e-01 
278 1334.69 6.38839156e+00 1.91651747e-01 
277 1336.17 6.32927621e+00 1.89878286e-01 
276 1337.65 6.22801856e+00 1.86840557e-01 
275 1339.12 6.18726701e+00 1.85618010e-01 
274 1340.60 6.05461340e+00 1.81638402e-01 
273 1342.07 5.89461378e+00 1.76838413e-01 
272 1343.55 5.63277734e+00 1.68983320e-01 
271 1345.02 5.03783523e+00 1.51135057e-01 
270 1346.49 4.64629612e+00 1.39388884e-01 
269 1347.96 4.20005981e+00 1.26001794e-01 
268 1349.43 3.72783901e+00 1.11835170e-01 
267 1350.89 3.27010462e+00 9.81031387e-02 
266 1352.36 2.66951768e+00 8.00855303e-02 
265 1353.82 2.30687081e+00 6.92061244e-02 
264 1355.29 1.78930407e+00 5.36791221e-02 
263 1356.75 1.69987942e+00 5.09963825e-02 
262 1358.21 1.38507981e+00 4.15523943e-02 
261 1359.67 7.87885234e-01 2.36365570e-02 
260 1361.13 6.80805295e-01 2.04241589e-02 
259 1362.59 7.71256235e-01 2.31376871e-02 
258 1364.04 1.08310198e+00 3.24930593e-02 
257 1365.50 1.05247078e+00 3.15741233e-02 
256 1366.95 6.26632229e-01 1.87989669e-02 
255 1368.41 6.65644859e-01 1.99693458e-02 
254 1369.86 9.47411540e-01 2.84223462e-02 
253 1371.31 1.23627693e+00 3.70883080e-02 
252 1372.76 1.03129330e+00 3.09387990e-02 
251 1374.21 1.65285142e+00 4.95855425e-02 
250 1375.65 1.72688201e+00 5.18064604e-02 
249 1377.10 1.58180172e+00 4.74540517e-02 
248 1378.55 1.17651574e+00 3.52954721e-02 
247 1379.99 9.39184051e-01 2.81755215e-02 
246 1381.43 4.54590014e-01 1.36377004e-02 
245 1382.87 6.84953228e-01 2.05485968e-02 
244 1384.32 8.32024494e-01 2.49607348e-02 
243 1385.75 1.12385874e+00 3.37157623e-02 
242 1387.19 1.48748284e+00 4.46244852e-02 
241 1388.63 1.67998077e+00 5.03994232e-02 
240 1390.07 1.73554366e+00 5.20663097e-02 
239 1391.50 1.63125403e+00 4.89376209e-02 
238 1392.94 9.88445451e-01 2.96533635e-02 
237 1394.37 1.30015958e+00 3.90047875e-02 
236 1395.80 1.48685371e+00 4.46056114e-02 
235 1397.23 1.38198715e+00 4.14596146e-02 
234 1398.66 1.35046161e+00 4.05138484e-02 
233 1400.09 1.64772859e+00 4.94318576e-02 
232 1401.52 1.46698086e+00 4.40094259e-02 
231 1402.94 1.68808116e+00 5.06424349e-02 
230 1404.37 1.81823333e+00 5.45470000e-02 
229 1405.79 1.71651801e+00 5.14955404e-02 
228 1407.22 1.79323997e+00 5.37971990e-02 
227 1408.64 1.93950598e+00 5.81851793e-02 
226 1410.06 2.13457097e+00 6.40371292e-02 
225 1411.48 2.13486460e+00 6.40459379e-02 
224 1412.90 2.32938646e+00 6.98815939e-02 
223 1414.32 2.49234339e+00 7.47703017e-02 
222 1415.73 2.42208708e+00 7.26626123e-02 
221 1417.15 2.47667790e+00 7.43003369e-02 
220 1418.56 2.61382321e+00 7.84146963e-02 
219 1419.98 2.58288876e+00 7.74866628e-02 
218 1421.39 2.74153738e+00 8.22461214e-02 
217 1422.80 2.99066461e+00 8.97199383e-02 
216 1424.21 3.05399853e+00 9.16199559e-02 
215 1425.62 3.03839330e+00 9.11517989e-02 
214 1427.03 3.16979861e+00 9.50939584e-02 
213 1428.44 3.03412076e+00 9.10236228e-02 
212 1429.84 2.89448735e+00 8.68346206e-02 
211 1431.25 2.91681376e+00 8.75044128e-02 
210 1432.65 2.89449702e+00 8.68349106e-02 
209 1434.06 2.93796442e+00 8.81389326e-02 
208 1435.46 3.04739759e+00 9.14219278e-02 
207 1436.86 3.10025113e+00 9.30075338e-02 
206 1438.26 3.13100825e+00 9.39302476e-02 
205 1439.66 3.19133187e+00 9.57399562e-02 
204 1441.05 3.35762464e+00 1.00728739e-01 
203 1442.45 3.28430255e+00 9.85290765e-02 
202 1443.85 3.29970167e+00 9.89910501e-02 
201 1445.24 3.42814176e+00 1.02844253e-01 
200 1446.64 3.46200970e+00 1.03860291e-01 
199 1448.03 3.38419016e+00 1.01525705e-01 
198 1449.42 3.48652030e+00 1.04595609e-01 
197 1450.81 3.53579662e+00 1.06073898e-01 
196 1452.20 3.60274519e+00 1.08082356e-01 
195 1453.59 3.89140655e+00 1.16742197e-01 
194 1454.97 4.11676161e+00 1.23502848e-01 
193 1456.36 4.16019370e+00 1.24805811e-01 
192 1457.75 4.21172087e+00 1.26351626e-01 
191 1459.13 4.17130387e+00 1.25139116e-01 
190 1460.51 4.12074448e+00 1.23622334e-01 
189 1461.90 3.95395282e+00 1.18618585e-01 
188 1463.28 3.85685597e+00 1.15705679e-01 
187 1464.66 3.73990581e+00 1.12197174e-01 
186 1466.04 3.76478490e+00 1.12943547e-01 
185 1467.41 3.59668897e+00 1.07900669e-01 
184 1468.79 3.50686030e+00 1.05205809e-01 
183 1470.17 3.44538887e+00 1.03361666e-01 
182 1471.54 3.51107580e+00 1.05332274e-01 
181 1472.92 3.64243559e+00 1.09273068e-01 
180 1474.29 3.80540270e+00 1.14162081e-01 
179 1475.66 3.84755646e+00 1.15426694e-01 
178 1477.03 3.77682193e+00 1.13304658e-01 
177 1478.40 3.72056480e+00 1.11616944e-01 
176 1479.77 3.81112948e+00 1.14333885e-01 
175 1481.14 3.83829910e+00 1.15148973e-01 
174 1482.51 3.94301050e+00 1.18290315e-01 
173 1483.87 3.92320905e+00 1.17696272e-01 
172 1485.24 3.90509157e+00 1.17152747e-01 
171 1486.60 3.86550875e+00 1.15965262e-01 
170 1487.96 3.93663644e+00 1.18099093e-01 
169 1489.32 3.98208113e+00 1.19462434e-01 
168 1490.69 4.16662715e+00 1.24998814e-01 
167 1492.04 4.19732284e+00 1.25919685e-01 
166 1493.40 4.26458260e+00 1.27937478e-01 
165 1494.76 4.25850873e+00 1.27755262e-01 
164 1496.12 4.29909542e+00 1.28972863e-01 
163 1497.47 4.27517456e+00 1.28255237e-01 
162 1498.83 4.36460653e+00 1.30938196e-01 
161 1500.18 4.21732011e+00 1.26519603e-01 
160 1501.53 4.13723233e+00 1.24116970e-01 
159 1502.89 4.03226453e+00 1.20967936e-01 
158 1504.24 4.07892260e+00 1.22367678e-01 
157 1505.59 4.12217806e+00 1.23665342e-01 
156 1506.93 4.25986911e+00 1.27796073e-01 
155 1508.28 4.30029003e+00 1.29008701e-01 
154 1509.63 4.34166884e+00 1.30250065e-01 
153 1510.97 4.30739909e+00 1.29221973e-01 
152 1512.32 4.37562197e+00 1.31268659e-01 
151 1513.66 4.30473014e+00 1.29141904e-01 
150 1515.00 4.35813703e+00 1.30744111e-01 
149 1516.34 4.31012642e+00 1.29303793e-01 
148 1517.69 4.31929269e+00 1.29578781e-01 
147 1519.02 4.23798992e+00 1.27139698e-01 
146 1520.36 4.25555056e+00 1.27666517e-01 
145 1521.70 4.19885969e+00 1.25965791e-01 
144 1523.04 4.25101278e+00 1.27530383e-01 
143 1524.37 4.21091074e+00 1.26327322e-01 
142 1525.71 4.26061269e+00 1.27818381e-01 
141 1527.04 4.19685811e+00 1.25905743e-01 
140 1528.37 4.20393041e+00 1.26117912e-01 
139 1529.70 4.12725959e+00 1.23817788e-01 
138 1531.03 4.16853004e+00 1.25055901e-01 
137 1532.36 4.12033936e+00 1.23610181e-01 
136 1533.69 4.15444237e+00 1.24633271e-01 
135 1535.02 4.06581917e+00 1.21974575e-01 
134 1536.34 4.08612456e+00 1.22583737e-01 
133 1537.67 4.02001544e+00 1.20600463e-01 
132 1538.99 4.06409112e+00 1.21922734e-01 
131 1540.31 4.01671548e+00 1.20501464e-01 
130 1541.64 4.06469519e+00 1.21940856e-01 
129 1542.96 4.02610470e+00 1.20783141e-01 
128 1544.28 4.05147973e+00 1.21544392e-01 
127 1545.60 3.96789993e+00 1.19036998e-01 
126 1546.91 4.01401492e+00 1.20420448e-01 
125 1548.23 3.93071297e+00 1.17921389e-01 
124 1549.55 3.98505655e+00 1.19551697e-01 
123 1550.86 3.91735006e+00 1.17520502e-01 
122 1552.18 3.93449393e+00 1.18034818e-01 
121 1553.49 3.87663520e+00 1.16299056e-01 
120 1554.80 3.92379015e+00 1.17713705e-01 
119 1556.11 3.84059885e+00 1.15217966e-01 
118 1557.42 3.87358286e+00 1.16207486e-01 
117 1558.73 3.80342733e+00 1.14102820e-01 
116 1560.04 3.83016080e+00 1.14904824e-01 
115 1561.34 3.74650183e+00 1.12395055e-01 
114 1562.65 3.80601320e+00 1.14180396e-01 
113 1563.95 3.72286566e+00 1.11685970e-01 
112 1565.26 3.77934349e+00 1.13380305e-01 
111 1566.56 3.66251698e+00 1.09875509e-01 
110 1567.86 3.69540462e+00 1.10862139e-01 
109 1569.16 3.59540699e+00 1.07862210e-01 
108 1570.46 3.59806669e+00 1.07942001e-01 
107 1571.76 3.51082240e+00 1.05324672e-01 
106 1573.05 3.47578357e+00 1.04273507e-01 
105 1574.35 3.36354583e+00 1.00906375e-01 
104 1575.64 3.38899219e+00 1.01669766e-01 
103 1576.94 3.35207565e+00 1.00562270e-01 
102 1578.23 3.42577073e+00 1.02773122e-01 
101 1579.52 3.41253347e+00 1.02376004e-01 
100 1580.81 3.48198392e+00 1.04459518e-01 
99 1582.10 3.41666540e+00 1.02499962e-01 
98 1583.39 3.46991948e+00 1.04097584e-01 
97 1584.68 3.37362507e+00 1.01208752e-01 
96 1585.97 3.35141580e+00 1.00542474e-01 
95 1587.25 3.24582207e+00 9.73746622e-02 
94 1588.54 3.25409012e+00 9.76227036e-02 
93 1589.82 3.18432288e+00 9.55296865e-02 
92 1591.10 3.27542876e+00 9.82628628e-02 
91 1592.38 3.23946144e+00 9.71838432e-02 
90 1593.66 3.29700642e+00 9.89101926e-02 
89 1594.94 3.21657823e+00 9.64973470e-02 
88 1596.22 3.23553825e+00 9.70661474e-02 
87 1597.50 3.13565861e+00 9.40697584e-02 
86 1598.77 3.14929032e+00 9.44787097e-02 
85 1600.05 3.04405573e+00 9.13216720e-02 
84 1601.32 3.06309289e+00 9.18927866e-02 
83 1602.59 2.98712822e+00 8.96138467e-02 
82 1603.86 3.04370744e+00 9.13112232e-02 
81 1605.13 2.93352654e+00 8.80057961e-02 
80 1606.40 2.99673554e+00 8.99020661e-02 
79 1607.67 2.89717215e+00 8.69151645e-02 
78 1608.94 2.94020932e+00 8.82062795e-02 
77 1610.20 2.87753860e+00 8.63261581e-02 
76 1611.47 2.94801919e+00 8.84405758e-02 
75 1612.73 2.88589164e+00 8.65767492e-02 
74 1614.00 2.93039444e+00 8.79118332e-02 
73 1615.26 2.84673520e+00 8.54020559e-02 
72 1616.52 2.86792918e+00 8.60378755e-02 
71 1617.78 2.76484867e+00 8.29454602e-02 
70 1619.03 2.80218391e+00 8.40655173e-02 
69 1620.29 2.73684229e+00 8.21052687e-02 
68 1621.55 2.80265047e+00 8.40795140e-02 
67 1622.80 2.73781165e+00 8.21343496e-02 
66 1624.06 2.81209159e+00 8.43627477e-02 
65 1625.31 2.72360410e+00 8.17081230e-02 
64 1626.56 2.78455943e+00 8.35367830e-02 
63 1627.81 2.68390822e+00 8.05172466e-02 
62 1629.06 2.68980913e+00 8.06942739e-02 
61 1630.31 2.59136717e+00 7.77410151e-02 
60 1631.56 2.60921705e+00 7.82765116e-02 
59 1632.80 2.51709187e+00 7.55127560e-02 
58 1634.05 2.55529601e+00 7.66588802e-02 
57 1635.29 2.44474412e+00 7.33423236e-02 
56 1636.53 2.46114291e+00 7.38342874e-02 
55 1637.77 2.33609274e+00 7.00827821e-02 
54 1639.01 2.35401628e+00 7.06204883e-02 
53 1640.25 2.27984102e+00 6.83952306e-02 
52 1641.49 2.30109706e+00 6.90329118e-02 
51 1642.73 2.22584600e+00 6.67753800e-02 
