% C0 (TOA Count Rate, /ms) for 4STAR NIR spectrometer (512 channels) derived from MLONov2016 and recorded on 2017-01-23 18:47:50.
% Based on mean of the c0s (1.8-12 airmass) from 20161110, 20161111, 20161112, and 20161113, which was before the weird drop and spectro issues we saw.  C0err=2*stdev the variability within these 4 langleys.
Pix Wavelength C0 C0err
511 949.79 4.13091206e+00 2.22027153e+00 
510 949.79 4.90876481e+00 1.07539114e+00 
509 951.68 5.30536114e+00 1.08850188e+00 
508 953.57 5.36703282e+00 1.06860103e+00 
507 955.46 5.83166494e+00 1.11509084e+00 
506 957.34 5.96934721e+00 1.10473562e+00 
505 959.22 6.50042482e+00 1.08181134e+00 
504 961.10 6.65551546e+00 9.91090728e-01 
503 962.98 7.16305432e+00 8.96228556e-01 
502 964.85 7.24363464e+00 7.76672484e-01 
501 966.72 7.84456366e+00 6.19138264e-01 
500 968.59 7.96124272e+00 4.84752379e-01 
499 970.45 8.36974489e+00 4.24927575e-01 
498 972.32 8.31551542e+00 4.51056551e-01 
497 974.18 8.64066711e+00 4.89747971e-01 
496 976.04 8.59589461e+00 4.67445160e-01 
495 977.89 8.96872285e+00 3.95924577e-01 
494 979.74 8.91758184e+00 2.77515349e-01 
493 981.59 9.23366356e+00 1.94214693e-01 
492 983.44 9.15199478e+00 1.35854003e-01 
491 985.29 9.41424025e+00 1.03692304e-01 
490 987.13 9.25088991e+00 1.03355130e-01 
489 988.97 9.52014158e+00 1.16785756e-01 
488 990.81 9.32341063e+00 1.01311311e-01 
487 992.65 9.50334892e+00 1.12232843e-01 
486 994.48 9.30695824e+00 8.12645634e-02 
485 996.31 9.43695567e+00 8.98905631e-02 
484 998.14 9.19026954e+00 7.84427243e-02 
483 999.97 9.36242064e+00 9.13757503e-02 
482 1001.79 9.09254538e+00 9.41225143e-02 
481 1003.62 9.21565578e+00 1.09122961e-01 
480 1005.44 9.01704952e+00 1.08516626e-01 
479 1007.25 9.27423424e+00 1.13011912e-01 
478 1009.07 9.06410920e+00 1.01409037e-01 
477 1010.88 9.20482916e+00 9.97412639e-02 
476 1012.69 8.92137683e+00 9.68481674e-02 
475 1014.50 9.02081864e+00 9.46602837e-02 
474 1016.31 8.77650776e+00 8.00930164e-02 
473 1018.11 8.92719108e+00 8.64463820e-02 
472 1019.91 8.68367347e+00 9.32098865e-02 
471 1021.71 8.84832777e+00 1.03286912e-01 
470 1023.51 8.61193185e+00 1.03270517e-01 
469 1025.30 8.74773066e+00 9.36962696e-02 
468 1027.09 8.61550214e+00 8.13538637e-02 
467 1028.88 8.73389057e+00 7.17416131e-02 
466 1030.67 8.55929157e+00 6.20856106e-02 
465 1032.46 8.70988400e+00 6.01086010e-02 
464 1034.24 8.56350623e+00 5.74658335e-02 
463 1036.02 8.75917483e+00 4.35316265e-02 
462 1037.80 8.64237316e+00 4.86590142e-02 
461 1039.58 8.84022005e+00 3.47092275e-02 
460 1041.35 8.69496818e+00 3.09484223e-02 
459 1043.12 8.87525072e+00 2.67562097e-02 
458 1044.89 8.81445433e+00 5.11116301e-02 
457 1046.66 9.04551464e+00 5.87742899e-02 
456 1048.43 8.99892085e+00 6.63367610e-02 
455 1050.19 9.25079563e+00 8.28354436e-02 
454 1051.95 9.13298419e+00 1.03332355e-01 
453 1053.71 9.37290273e+00 9.72937781e-02 
452 1055.47 9.17674636e+00 7.98918976e-02 
451 1057.23 9.30161680e+00 6.65755148e-02 
450 1058.98 9.11779619e+00 4.91777966e-02 
449 1060.73 9.31456451e+00 6.50012903e-02 
448 1062.48 9.13261533e+00 7.78270269e-02 
447 1064.23 9.28012243e+00 9.90519973e-02 
446 1065.97 9.01898556e+00 1.07443976e-01 
445 1067.71 9.05130796e+00 9.71085720e-02 
444 1069.46 8.84479852e+00 1.05631830e-01 
443 1071.19 8.90661746e+00 8.99830877e-02 
442 1072.93 8.73425131e+00 9.39948284e-02 
441 1074.67 8.83827085e+00 8.93160612e-02 
440 1076.40 8.63043523e+00 1.01284238e-01 
439 1078.13 8.67255529e+00 1.21145485e-01 
438 1079.86 8.43879037e+00 1.11816977e-01 
437 1081.58 8.49146251e+00 1.15745547e-01 
436 1083.31 8.35356424e+00 1.44957382e-01 
435 1085.03 8.51813125e+00 1.50244357e-01 
434 1086.75 8.45192117e+00 1.79480437e-01 
433 1088.47 8.58990306e+00 1.98863556e-01 
432 1090.19 8.48567131e+00 2.26222878e-01 
431 1091.90 8.58304326e+00 2.46791065e-01 
430 1093.61 8.46003898e+00 2.40074630e-01 
429 1095.33 8.67223346e+00 2.75611008e-01 
428 1097.03 8.67751921e+00 3.35263062e-01 
427 1098.74 8.93565332e+00 4.39828366e-01 
426 1100.45 8.96042478e+00 5.29439046e-01 
425 1102.15 9.22560495e+00 6.04838773e-01 
424 1103.85 9.18349297e+00 6.71461137e-01 
423 1105.55 9.33769914e+00 7.43519012e-01 
422 1107.25 9.16203948e+00 7.90158271e-01 
421 1108.94 9.17789089e+00 9.31355380e-01 
420 1110.64 8.78103490e+00 1.18057478e+00 
419 1112.33 8.47604777e+00 1.58782088e+00 
418 1114.02 7.77589118e+00 2.04190847e+00 
417 1115.70 7.53144803e+00 2.34506046e+00 
416 1117.39 7.19704882e+00 2.46136251e+00 
415 1119.07 7.07533753e+00 2.56115334e+00 
414 1120.76 6.92314354e+00 2.48656970e+00 
413 1122.44 6.85766890e+00 2.59625909e+00 
412 1124.12 6.85301218e+00 2.58049642e+00 
411 1125.79 7.14979698e+00 2.62230581e+00 
410 1127.47 7.35908126e+00 2.64068999e+00 
409 1129.14 7.83785328e+00 2.44521975e+00 
408 1130.81 7.26154627e+00 2.54707760e+00 
407 1132.48 7.03680270e+00 2.54828294e+00 
406 1134.15 6.95034432e+00 2.44481492e+00 
405 1135.81 7.50569981e+00 2.16295000e+00 
404 1137.48 8.37647595e+00 1.73583984e+00 
403 1139.14 8.75628645e+00 1.59474860e+00 
402 1140.80 8.36854531e+00 1.82634995e+00 
401 1142.46 8.10253690e+00 2.12547339e+00 
400 1144.12 7.62404852e+00 2.40114426e+00 
399 1145.77 7.56663095e+00 2.51800597e+00 
398 1147.43 7.61828608e+00 2.36674475e+00 
397 1149.08 7.96686164e+00 2.05895468e+00 
396 1150.73 8.00444790e+00 1.95913493e+00 
395 1152.38 8.39407766e+00 1.76249540e+00 
394 1154.02 8.47538759e+00 1.59089089e+00 
393 1155.67 8.86013134e+00 1.39283832e+00 
392 1157.31 8.87362676e+00 1.19307907e+00 
391 1158.95 9.08728045e+00 1.02722108e+00 
390 1160.59 9.16132030e+00 8.72048781e-01 
389 1162.23 9.44398599e+00 7.82221297e-01 
388 1163.87 9.41635170e+00 7.02999523e-01 
387 1165.50 9.48503142e+00 6.99146760e-01 
386 1167.13 9.38978828e+00 6.13382943e-01 
385 1168.76 9.47681160e+00 4.83057356e-01 
384 1170.39 9.31783042e+00 5.12699129e-01 
383 1172.02 9.30646387e+00 5.31153296e-01 
382 1173.65 9.11809933e+00 5.56893131e-01 
381 1175.27 9.08492667e+00 5.30895498e-01 
380 1176.90 8.97089379e+00 4.34233446e-01 
379 1178.52 8.86614846e+00 5.14715527e-01 
378 1180.14 8.66460002e+00 4.90753482e-01 
377 1181.75 8.62818851e+00 4.95878580e-01 
376 1183.37 8.45468505e+00 4.85876218e-01 
375 1184.99 8.46123044e+00 4.81377939e-01 
374 1186.60 8.38516115e+00 4.58795794e-01 
373 1188.21 8.39994015e+00 4.22778444e-01 
372 1189.82 8.38211933e+00 3.78531460e-01 
371 1191.43 8.59244229e+00 3.34232667e-01 
370 1193.04 8.48811437e+00 3.16611694e-01 
369 1194.64 8.46587372e+00 3.25107396e-01 
368 1196.24 8.27427537e+00 3.60184677e-01 
367 1197.85 8.30932212e+00 3.91181009e-01 
366 1199.45 8.16652000e+00 4.42797428e-01 
365 1201.05 8.24382244e+00 4.75744708e-01 
364 1202.64 8.18814627e+00 4.28961207e-01 
363 1204.24 8.26792648e+00 4.08736465e-01 
362 1205.83 8.27896633e+00 3.43864642e-01 
361 1207.43 8.29360371e+00 3.02764569e-01 
360 1209.02 8.19333168e+00 2.85331746e-01 
359 1210.61 8.29478622e+00 2.75787114e-01 
358 1212.19 8.27511800e+00 2.73383440e-01 
357 1213.78 8.44160074e+00 2.45647610e-01 
356 1215.37 8.37819393e+00 2.09817875e-01 
355 1216.95 8.43576225e+00 1.51197304e-01 
354 1218.53 8.41599283e+00 1.55365167e-01 
353 1220.11 8.48731862e+00 1.38694341e-01 
352 1221.69 8.44717743e+00 1.16244416e-01 
351 1223.27 8.47307869e+00 1.13882968e-01 
350 1224.84 8.48392293e+00 1.07523078e-01 
349 1226.42 8.53726356e+00 9.80632674e-02 
348 1227.99 8.49998448e+00 8.82053155e-02 
347 1229.56 8.60837333e+00 6.07876240e-02 
346 1231.13 8.51820523e+00 5.57845317e-02 
345 1232.70 8.54943151e+00 5.60531803e-02 
344 1234.27 8.50818969e+00 5.46815457e-02 
343 1235.84 8.51686469e+00 5.80588313e-02 
342 1237.40 8.49110212e+00 5.64765957e-02 
341 1238.96 8.50531236e+00 4.90254232e-02 
340 1240.52 8.34005256e+00 3.75809911e-02 
339 1242.08 8.46468447e+00 4.50684289e-02 
338 1243.64 8.41912329e+00 3.48887175e-02 
337 1245.20 8.43493961e+00 3.53798060e-02 
336 1246.75 8.39619819e+00 1.70847254e-02 
335 1248.31 8.47382927e+00 2.68107797e-02 
334 1249.86 8.40478861e+00 3.04877277e-02 
333 1251.41 8.45844420e+00 6.03141099e-02 
332 1252.96 8.38206801e+00 6.20234012e-02 
331 1254.51 8.41430348e+00 8.65841559e-02 
330 1256.06 8.32602526e+00 1.01330009e-01 
329 1257.61 8.27260077e+00 8.89801364e-02 
328 1259.15 8.16112568e+00 1.11663735e-01 
327 1260.69 8.12962621e+00 1.21430897e-01 
326 1262.23 8.04627569e+00 1.52543360e-01 
325 1263.77 8.03432994e+00 1.47247130e-01 
324 1265.31 7.85700215e+00 1.95918816e-01 
323 1266.85 7.86507097e+00 2.14673588e-01 
322 1268.39 7.89193939e+00 1.93432211e-01 
321 1269.92 8.02204947e+00 1.84003245e-01 
320 1271.46 8.20871662e+00 1.31751319e-01 
319 1272.99 8.26420380e+00 1.29542082e-01 
318 1274.52 8.25599178e+00 1.07711247e-01 
317 1276.05 8.31911741e+00 1.11250547e-01 
316 1277.58 8.16098050e+00 9.54422325e-02 
315 1279.10 7.99861436e+00 6.97335733e-02 
314 1280.63 7.95892181e+00 6.98138600e-02 
313 1282.15 7.96576614e+00 6.77663247e-02 
312 1283.68 8.09305536e+00 7.71644448e-02 
311 1285.20 8.29113046e+00 1.00082931e-01 
310 1286.72 8.25267950e+00 1.00052298e-01 
309 1288.24 8.25379372e+00 9.09413360e-02 
308 1289.75 8.16210738e+00 9.17669230e-02 
307 1291.27 8.16491100e+00 8.21169309e-02 
306 1292.78 8.17775306e+00 9.98951874e-02 
305 1294.30 8.18645715e+00 9.96997848e-02 
304 1295.81 8.10562271e+00 1.35109079e-01 
303 1297.32 8.06273328e+00 1.91541172e-01 
302 1298.83 8.00074432e+00 2.14014953e-01 
301 1300.34 7.89138267e+00 2.86407066e-01 
300 1301.85 7.80440920e+00 3.14912626e-01 
299 1303.35 7.71553940e+00 3.57570662e-01 
298 1304.86 7.59471624e+00 3.87078310e-01 
297 1306.36 7.57480660e+00 3.91813159e-01 
296 1307.86 7.54372702e+00 3.99547899e-01 
295 1309.36 7.47630783e+00 4.29095370e-01 
294 1310.86 7.34729808e+00 5.05222628e-01 
293 1312.36 7.25100871e+00 4.98269302e-01 
292 1313.86 7.15551375e+00 5.07236290e-01 
291 1315.36 7.13905657e+00 5.48888128e-01 
290 1316.85 7.06693896e+00 6.24064019e-01 
289 1318.34 7.02062965e+00 6.60261415e-01 
288 1319.84 6.95085678e+00 8.03849457e-01 
287 1321.33 6.99537611e+00 8.02303224e-01 
286 1322.82 6.99232901e+00 7.81446560e-01 
285 1324.30 6.94809238e+00 8.42340144e-01 
284 1325.79 6.73260491e+00 8.97583254e-01 
283 1327.28 6.50495002e+00 1.06338849e+00 
282 1328.76 6.19802378e+00 1.30095728e+00 
281 1330.25 6.07558489e+00 1.40316632e+00 
280 1331.73 6.02099973e+00 1.41421868e+00 
279 1333.21 6.03554030e+00 1.34769492e+00 
278 1334.69 6.06289990e+00 1.22464994e+00 
277 1336.17 6.03516845e+00 1.10606000e+00 
276 1337.65 5.90430601e+00 1.13693803e+00 
275 1339.12 5.84772155e+00 1.08738953e+00 
274 1340.60 5.61913170e+00 1.25077112e+00 
273 1342.07 5.35068053e+00 1.42301004e+00 
272 1343.55 5.02789216e+00 1.58788106e+00 
271 1345.02 4.34084199e+00 1.86259576e+00 
270 1346.49 3.97522647e+00 2.00759989e+00 
269 1347.96 3.48037185e+00 2.26751077e+00 
268 1349.43 2.97197210e+00 2.58623321e+00 
267 1350.89 2.52351030e+00 2.63352090e+00 
266 1352.36 1.72220183e+00 3.15338508e+00 
265 1353.82 1.53468076e+00 2.89760925e+00 
264 1355.29 1.09661619e+00 2.70266835e+00 
263 1356.75 1.09412720e+00 2.60716939e+00 
262 1358.21 7.95937188e-01 2.26927267e+00 
261 1359.67 6.86367774e-01 1.78441894e+00 
260 1361.13 6.38898257e-01 1.65444019e+00 
259 1362.59 5.91455058e-01 1.65539956e+00 
258 1364.04 6.51561810e-01 1.90716173e+00 
257 1365.50 6.78812789e-01 1.90158479e+00 
256 1366.95 7.53014026e-01 1.59959681e+00 
255 1368.41 6.42021155e-01 1.84750061e+00 
254 1369.86 6.34458943e-01 1.90556199e+00 
253 1371.31 7.96560693e-01 2.05938185e+00 
252 1372.76 9.50939254e-01 1.97798649e+00 
251 1374.21 1.01865394e+00 2.36075139e+00 
250 1375.65 9.74341040e-01 2.21624840e+00 
249 1377.10 9.02507206e-01 2.06951810e+00 
248 1378.55 7.33553716e-01 1.57642320e+00 
247 1379.99 5.88471488e-01 1.34670014e+00 
246 1381.43 5.08424470e-01 9.27465808e-01 
245 1382.87 4.41880847e-01 1.28931330e+00 
244 1384.32 5.05730263e-01 1.40360545e+00 
243 1385.75 7.48095433e-01 1.57508128e+00 
242 1387.19 9.97157180e-01 1.84757355e+00 
241 1388.63 9.22966917e-01 1.93010625e+00 
240 1390.07 1.20851140e+00 1.92141008e+00 
239 1391.50 1.14186710e+00 1.84564820e+00 
238 1392.94 8.17171767e-01 1.44593362e+00 
237 1394.37 8.92659714e-01 1.59615203e+00 
236 1395.80 9.54043503e-01 1.86036443e+00 
235 1397.23 1.04361073e+00 1.47523829e+00 
234 1398.66 9.63597546e-01 1.60611728e+00 
233 1400.09 1.27026343e+00 1.62747673e+00 
232 1401.52 1.08965150e+00 1.56236654e+00 
231 1402.94 1.26736017e+00 1.68857772e+00 
230 1404.37 1.06663745e+00 2.14861682e+00 
229 1405.79 1.34877584e+00 1.66902275e+00 
228 1407.22 1.04552243e+00 2.13051266e+00 
227 1408.64 1.50479466e+00 1.75725675e+00 
226 1410.06 1.31364285e+00 2.42504744e+00 
225 1411.48 1.66777553e+00 1.81805201e+00 
224 1412.90 1.46648222e+00 2.49532612e+00 
223 1414.32 1.96902831e+00 1.91685380e+00 
222 1415.73 1.99155733e+00 1.70964999e+00 
221 1417.15 2.03955581e+00 1.73934912e+00 
220 1418.56 2.17972121e+00 1.75611289e+00 
219 1419.98 2.14996867e+00 1.63651867e+00 
218 1421.39 2.33110914e+00 1.55390030e+00 
217 1422.80 2.58600949e+00 1.45563148e+00 
216 1424.21 2.61151006e+00 1.56533101e+00 
215 1425.62 2.56591387e+00 1.65670443e+00 
214 1427.03 2.68044297e+00 1.61757723e+00 
213 1428.44 2.55098246e+00 1.54685401e+00 
212 1429.84 2.42772311e+00 1.50818613e+00 
211 1431.25 2.51182155e+00 1.38841416e+00 
210 1432.65 2.49635649e+00 1.41383903e+00 
209 1434.06 2.52079411e+00 1.55187126e+00 
208 1435.46 2.63825303e+00 1.49561555e+00 
207 1436.86 2.70203110e+00 1.40117133e+00 
206 1438.26 2.73956331e+00 1.41119277e+00 
205 1439.66 2.85077341e+00 1.27830074e+00 
204 1441.05 3.01755477e+00 1.35698746e+00 
203 1442.45 2.97943795e+00 1.28233912e+00 
202 1443.85 2.98324198e+00 1.31490497e+00 
201 1445.24 3.08672729e+00 1.28954994e+00 
200 1446.64 3.08506867e+00 1.35420434e+00 
199 1448.03 2.96876457e+00 1.39070005e+00 
198 1449.42 3.08391390e+00 1.32805229e+00 
197 1450.81 3.12573929e+00 1.25633021e+00 
196 1452.20 3.20930400e+00 1.20064779e+00 
195 1453.59 3.56173667e+00 1.04088583e+00 
194 1454.97 3.83917908e+00 9.25614070e-01 
193 1456.36 3.88677752e+00 8.66991538e-01 
192 1457.75 3.93137648e+00 8.90418155e-01 
191 1459.13 3.85240106e+00 8.97431193e-01 
190 1460.51 3.74969610e+00 9.67630712e-01 
189 1461.90 3.57211484e+00 9.58274830e-01 
188 1463.28 3.45348201e+00 1.03814412e+00 
187 1464.66 3.30624694e+00 1.07464529e+00 
186 1466.04 3.29857395e+00 1.11544970e+00 
185 1467.41 3.10727664e+00 1.23324439e+00 
184 1468.79 3.03389732e+00 1.28380064e+00 
183 1470.17 2.98597282e+00 1.26348170e+00 
182 1471.54 3.02054705e+00 1.31546370e+00 
181 1472.92 3.16196029e+00 1.19727608e+00 
180 1474.29 3.34168568e+00 1.14398234e+00 
179 1475.66 3.37229514e+00 1.09079892e+00 
178 1477.03 3.27238238e+00 1.14696336e+00 
177 1478.40 3.21297728e+00 1.13711796e+00 
176 1479.77 3.30765986e+00 1.03466422e+00 
175 1481.14 3.34386839e+00 9.38927784e-01 
174 1482.51 3.47051569e+00 8.59285847e-01 
173 1483.87 3.47469323e+00 8.33447958e-01 
172 1485.24 3.47132945e+00 8.48607872e-01 
171 1486.60 3.46205114e+00 8.31081048e-01 
170 1487.96 3.55601728e+00 7.45651726e-01 
169 1489.32 3.61542988e+00 6.37360017e-01 
168 1490.69 3.81398448e+00 5.84212866e-01 
167 1492.04 3.84432807e+00 5.53014073e-01 
166 1493.40 3.89946406e+00 5.69575569e-01 
165 1494.76 3.91069366e+00 5.32171626e-01 
164 1496.12 3.98147929e+00 4.81368232e-01 
163 1497.47 3.98707085e+00 4.00865811e-01 
162 1498.83 4.08936052e+00 3.55527047e-01 
161 1500.18 3.93092169e+00 3.42178468e-01 
160 1501.53 3.85208941e+00 3.68957321e-01 
159 1502.89 3.75306840e+00 3.75883315e-01 
158 1504.24 3.78996446e+00 3.51790561e-01 
157 1505.59 3.82062729e+00 3.47821168e-01 
156 1506.93 3.98368786e+00 2.67047364e-01 
155 1508.28 4.03452281e+00 2.14440208e-01 
154 1509.63 4.07227768e+00 2.07820316e-01 
153 1510.97 4.03712855e+00 1.70434483e-01 
152 1512.32 4.11780552e+00 1.55901833e-01 
151 1513.66 4.03066753e+00 1.43218949e-01 
150 1515.00 4.07023199e+00 1.46996916e-01 
149 1516.34 4.04302059e+00 1.45875401e-01 
148 1517.69 4.08659382e+00 1.26783601e-01 
147 1519.02 4.03788907e+00 9.64608109e-02 
146 1520.36 4.06076149e+00 5.63843494e-02 
145 1521.70 4.01640073e+00 5.04049299e-02 
144 1523.04 4.09563928e+00 5.09799662e-02 
143 1524.37 4.04998653e+00 4.33375386e-02 
142 1525.71 4.09637809e+00 4.14889104e-02 
141 1527.04 4.02390690e+00 5.93853902e-02 
140 1528.37 4.04530779e+00 3.91248854e-02 
139 1529.70 3.97005494e+00 3.28967040e-02 
138 1531.03 4.00743464e+00 3.78731094e-02 
137 1532.36 3.94522882e+00 3.25276711e-02 
136 1533.69 3.97862482e+00 2.11527655e-02 
135 1535.02 3.88680377e+00 4.33657976e-02 
134 1536.34 3.92179932e+00 2.00624835e-02 
133 1537.67 3.83208070e+00 2.77052982e-02 
132 1538.99 3.85743632e+00 3.54209251e-02 
131 1540.31 3.79744884e+00 3.37229252e-02 
130 1541.64 3.84624896e+00 2.21409155e-02 
129 1542.96 3.81335283e+00 1.98094216e-02 
128 1544.28 3.86862575e+00 2.74566757e-02 
127 1545.60 3.80743396e+00 3.00338908e-02 
126 1546.91 3.85081842e+00 2.06751435e-02 
125 1548.23 3.75111749e+00 1.22794406e-02 
124 1549.55 3.77956050e+00 1.72226155e-02 
123 1550.86 3.68817531e+00 1.67704890e-02 
122 1552.18 3.70379900e+00 3.53804316e-02 
121 1553.49 3.64716465e+00 5.49119263e-02 
120 1554.80 3.69765935e+00 5.60763339e-02 
119 1556.11 3.61696363e+00 3.41920949e-02 
118 1557.42 3.65683693e+00 3.80447556e-02 
117 1558.73 3.57660667e+00 3.63563091e-02 
116 1560.04 3.58437922e+00 3.79236029e-02 
115 1561.34 3.49523632e+00 3.36341694e-02 
114 1562.65 3.54367478e+00 4.52580031e-02 
113 1563.95 3.46177603e+00 3.91956081e-02 
112 1565.26 3.51241450e+00 5.06964013e-02 
111 1566.56 3.39682499e+00 4.10063416e-02 
110 1567.86 3.40583708e+00 5.44741409e-02 
109 1569.16 3.31250886e+00 7.77382948e-02 
108 1570.46 3.33039258e+00 9.38496671e-02 
107 1571.76 3.24494700e+00 9.24640856e-02 
106 1573.05 3.24556459e+00 1.06444275e-01 
105 1574.35 3.13103083e+00 8.38703750e-02 
104 1575.64 3.15592577e+00 8.51864732e-02 
103 1576.94 3.11159235e+00 7.26301535e-02 
102 1578.23 3.18262938e+00 7.87870958e-02 
101 1579.52 3.13196489e+00 5.85157521e-02 
100 1580.81 3.18880142e+00 5.72714468e-02 
99 1582.10 3.11426071e+00 3.51517322e-02 
98 1583.39 3.16968500e+00 3.58629871e-02 
97 1584.68 3.09124109e+00 2.02137743e-02 
96 1585.97 3.08486615e+00 3.71767382e-03 
95 1587.25 2.99503253e+00 1.41084962e-02 
94 1588.54 3.01863857e+00 1.71402679e-02 
93 1589.82 2.97243278e+00 2.28211885e-02 
92 1591.10 3.07374354e+00 1.47334126e-02 
91 1592.38 3.03774379e+00 2.87633072e-02 
90 1593.66 3.09736645e+00 3.87533726e-02 
89 1594.94 3.01633250e+00 2.69933592e-02 
88 1596.22 3.04575224e+00 1.29276516e-02 
87 1597.50 2.95648454e+00 1.32974576e-02 
86 1598.77 2.98302419e+00 2.35142064e-02 
85 1600.05 2.88945586e+00 2.02407916e-02 
84 1601.32 2.90476156e+00 2.98155488e-02 
83 1602.59 2.80918271e+00 2.41798712e-02 
82 1603.86 2.85790733e+00 1.48250093e-02 
81 1605.13 2.74009191e+00 1.49143190e-02 
80 1606.40 2.79039147e+00 1.08195891e-02 
79 1607.67 2.69181572e+00 1.15732348e-02 
78 1608.94 2.74447297e+00 1.22126180e-02 
77 1610.20 2.70422576e+00 9.26905922e-03 
76 1611.47 2.77912420e+00 5.96051146e-03 
75 1612.73 2.72792976e+00 1.27503889e-02 
74 1614.00 2.79389879e+00 1.35913276e-02 
73 1615.26 2.72464478e+00 6.90424466e-03 
72 1616.52 2.75143542e+00 2.34571079e-02 
71 1617.78 2.64829899e+00 1.75312405e-02 
70 1619.03 2.67680279e+00 3.31703468e-02 
69 1620.29 2.60800835e+00 3.34213336e-02 
68 1621.55 2.66469687e+00 1.60885000e-02 
67 1622.80 2.58473766e+00 3.48403546e-02 
66 1624.06 2.65633580e+00 1.95577011e-02 
65 1625.31 2.55302461e+00 3.31802778e-02 
64 1626.56 2.60685903e+00 4.39362782e-02 
63 1627.81 2.51178272e+00 2.11675235e-02 
62 1629.06 2.52463108e+00 2.33383295e-02 
61 1630.31 2.42733296e+00 1.87600763e-02 
60 1631.56 2.44971841e+00 2.05443908e-02 
59 1632.80 2.35072622e+00 3.26301254e-02 
58 1634.05 2.37763352e+00 2.26767245e-02 
57 1635.29 2.26381929e+00 2.70331539e-02 
56 1636.53 2.27864603e+00 2.89837851e-02 
55 1637.77 2.16167008e+00 2.67599687e-02 
54 1639.01 2.19802213e+00 2.03304990e-02 
