% C0 (TOA Count Rate, /ms) for 4STAR NIR spectrometer (512 channels) derived from 20160110starsun.mat and recorded on 2016-01-18 14:50:42.
% Data outside 2.0x the STD of 501 nm Langley residuals were screened out.
Pix Wavelength C0 C0err
511 949.79 5.17036639e+00 1.55110992e-01 
510 949.79 5.33285480e+00 1.59985644e-01 
509 951.68 5.71836484e+00 1.71550945e-01 
508 953.57 5.77761283e+00 1.73328385e-01 
507 955.46 6.26172285e+00 1.87851685e-01 
506 957.34 6.36654451e+00 1.90996335e-01 
505 959.22 6.85047653e+00 2.05514296e-01 
504 961.10 6.95541774e+00 2.08662532e-01 
503 962.98 7.39582652e+00 2.21874796e-01 
502 964.85 7.39513427e+00 2.21854028e-01 
501 966.72 7.91536346e+00 2.37460904e-01 
500 968.59 7.94726291e+00 2.38417887e-01 
499 970.45 8.36306834e+00 2.50892050e-01 
498 972.32 8.31759144e+00 2.49527743e-01 
497 974.18 8.68399597e+00 2.60519879e-01 
496 976.04 8.58696322e+00 2.57608896e-01 
495 977.89 8.93733218e+00 2.68119965e-01 
494 979.74 8.84578478e+00 2.65373543e-01 
493 981.59 9.12661825e+00 2.73798548e-01 
492 983.44 9.01495895e+00 2.70448769e-01 
491 985.29 9.25945262e+00 2.77783579e-01 
490 987.13 9.04174342e+00 2.71252303e-01 
489 988.97 9.29729251e+00 2.78918775e-01 
488 990.81 9.08311485e+00 2.72493446e-01 
487 992.65 9.25453644e+00 2.77636093e-01 
486 994.48 9.07535624e+00 2.72260687e-01 
485 996.31 9.20303230e+00 2.76090969e-01 
484 998.14 8.96884767e+00 2.69065430e-01 
483 999.97 9.10906058e+00 2.73271817e-01 
482 1001.79 8.81990831e+00 2.64597249e-01 
481 1003.62 8.90531507e+00 2.67159452e-01 
480 1005.44 8.68738415e+00 2.60621525e-01 
479 1007.25 8.95586548e+00 2.68675964e-01 
478 1009.07 8.78315076e+00 2.63494523e-01 
477 1010.88 8.94808299e+00 2.68442490e-01 
476 1012.69 8.70177379e+00 2.61053214e-01 
475 1014.50 8.80720996e+00 2.64216299e-01 
474 1016.31 8.62083708e+00 2.58625112e-01 
473 1018.11 8.75554079e+00 2.62666224e-01 
472 1019.91 8.50368132e+00 2.55110439e-01 
471 1021.71 8.65498406e+00 2.59649522e-01 
470 1023.51 8.41607074e+00 2.52482122e-01 
469 1025.30 8.56979442e+00 2.57093833e-01 
468 1027.09 8.45663411e+00 2.53699023e-01 
467 1028.88 8.61772423e+00 2.58531727e-01 
466 1030.67 8.45966560e+00 2.53789968e-01 
465 1032.46 8.62468464e+00 2.58740539e-01 
464 1034.24 8.49209151e+00 2.54762745e-01 
463 1036.02 8.64499938e+00 2.59349982e-01 
462 1037.80 8.53758962e+00 2.56127689e-01 
461 1039.58 8.72219667e+00 2.61665900e-01 
460 1041.35 8.61435697e+00 2.58430709e-01 
459 1043.12 8.79504989e+00 2.63851497e-01 
458 1044.89 8.70732627e+00 2.61219788e-01 
457 1046.66 8.91745251e+00 2.67523575e-01 
456 1048.43 8.82548520e+00 2.64764556e-01 
455 1050.19 9.05894948e+00 2.71768484e-01 
454 1051.95 8.95017651e+00 2.68505295e-01 
453 1053.71 9.22909252e+00 2.76872776e-01 
452 1055.47 9.05925773e+00 2.71777732e-01 
451 1057.23 9.19602085e+00 2.75880625e-01 
450 1058.98 9.06284977e+00 2.71885493e-01 
449 1060.73 9.25832127e+00 2.77749638e-01 
448 1062.48 9.09273553e+00 2.72782066e-01 
447 1064.23 9.22068708e+00 2.76620612e-01 
446 1065.97 8.95665574e+00 2.68699672e-01 
445 1067.71 9.00433832e+00 2.70130150e-01 
444 1069.46 8.77378160e+00 2.63213448e-01 
443 1071.19 8.89062737e+00 2.66718821e-01 
442 1072.93 8.71699209e+00 2.61509763e-01 
441 1074.67 8.81348889e+00 2.64404667e-01 
440 1076.40 8.60767747e+00 2.58230324e-01 
439 1078.13 8.64254366e+00 2.59276310e-01 
438 1079.86 8.38875661e+00 2.51662698e-01 
437 1081.58 8.46276341e+00 2.53882902e-01 
436 1083.31 8.36749569e+00 2.51024871e-01 
435 1085.03 8.55932680e+00 2.56779804e-01 
434 1086.75 8.49225976e+00 2.54767793e-01 
433 1088.47 8.60545278e+00 2.58163583e-01 
432 1090.19 8.48927816e+00 2.54678345e-01 
431 1091.90 8.59628443e+00 2.57888533e-01 
430 1093.61 8.46016605e+00 2.53804981e-01 
429 1095.33 8.68968850e+00 2.60690655e-01 
428 1097.03 8.71753763e+00 2.61526129e-01 
427 1098.74 8.99293848e+00 2.69788154e-01 
426 1100.45 9.01806533e+00 2.70541960e-01 
425 1102.15 9.34637792e+00 2.80391338e-01 
424 1103.85 9.34342361e+00 2.80302708e-01 
423 1105.55 9.57142282e+00 2.87142684e-01 
422 1107.25 9.49459260e+00 2.84837778e-01 
421 1108.94 9.63895498e+00 2.89168649e-01 
420 1110.64 9.40227009e+00 2.82068103e-01 
419 1112.33 9.35969347e+00 2.80790804e-01 
418 1114.02 8.96479537e+00 2.68943861e-01 
417 1115.70 8.92700508e+00 2.67810152e-01 
416 1117.39 8.67287770e+00 2.60186331e-01 
415 1119.07 8.60285259e+00 2.58085578e-01 
414 1120.76 8.37252738e+00 2.51175821e-01 
413 1122.44 8.36396788e+00 2.50919036e-01 
412 1124.12 8.30319642e+00 2.49095893e-01 
411 1125.79 8.57107752e+00 2.57132326e-01 
410 1127.47 8.75527943e+00 2.62658383e-01 
409 1129.14 9.11330895e+00 2.73399268e-01 
408 1130.81 8.65491645e+00 2.59647493e-01 
407 1132.48 8.44184288e+00 2.53255286e-01 
406 1134.15 8.28413889e+00 2.48524167e-01 
405 1135.81 8.62643030e+00 2.58792909e-01 
404 1137.48 9.17523881e+00 2.75257164e-01 
403 1139.14 9.47281756e+00 2.84184527e-01 
402 1140.80 9.25990022e+00 2.77797007e-01 
401 1142.46 9.18144111e+00 2.75443233e-01 
400 1144.12 8.93294653e+00 2.67988396e-01 
399 1145.77 8.95595864e+00 2.68678759e-01 
398 1147.43 8.94493998e+00 2.68348199e-01 
397 1149.08 9.12082921e+00 2.73624876e-01 
396 1150.73 9.07392219e+00 2.72217666e-01 
395 1152.38 9.31677673e+00 2.79503302e-01 
394 1154.02 9.32577812e+00 2.79773344e-01 
393 1155.67 9.58213242e+00 2.87463973e-01 
392 1157.31 9.47996029e+00 2.84398809e-01 
391 1158.95 9.58035607e+00 2.87410682e-01 
390 1160.59 9.54205585e+00 2.86261675e-01 
389 1162.23 9.74061950e+00 2.92218585e-01 
388 1163.87 9.67735633e+00 2.90320690e-01 
387 1165.50 9.74236593e+00 2.92270978e-01 
386 1167.13 9.59492819e+00 2.87847846e-01 
385 1168.76 9.67535898e+00 2.90260769e-01 
384 1170.39 9.53386843e+00 2.86016053e-01 
383 1172.02 9.47470372e+00 2.84241112e-01 
382 1173.65 9.32520512e+00 2.79756154e-01 
381 1175.27 9.32740307e+00 2.79822092e-01 
380 1176.90 9.20064641e+00 2.76019392e-01 
379 1178.52 9.16152526e+00 2.74845758e-01 
378 1180.14 8.92444305e+00 2.67733291e-01 
377 1181.75 8.86863370e+00 2.66059011e-01 
376 1183.37 8.67206500e+00 2.60161950e-01 
375 1184.99 8.67887865e+00 2.60366360e-01 
374 1186.60 8.54347669e+00 2.56304301e-01 
373 1188.21 8.51441954e+00 2.55432586e-01 
372 1189.82 8.42137045e+00 2.52641113e-01 
371 1191.43 8.62094395e+00 2.58628319e-01 
370 1193.04 8.52068912e+00 2.55620674e-01 
369 1194.64 8.50533898e+00 2.55160170e-01 
368 1196.24 8.28492004e+00 2.48547601e-01 
367 1197.85 8.37886837e+00 2.51366051e-01 
366 1199.45 8.28921307e+00 2.48676392e-01 
365 1201.05 8.36099917e+00 2.50829975e-01 
364 1202.64 8.27366727e+00 2.48210018e-01 
363 1204.24 8.30851815e+00 2.49255545e-01 
362 1205.83 8.24161078e+00 2.47248323e-01 
361 1207.43 8.24733571e+00 2.47420071e-01 
360 1209.02 8.19551949e+00 2.45865585e-01 
359 1210.61 8.31475615e+00 2.49442684e-01 
358 1212.19 8.31958231e+00 2.49587469e-01 
357 1213.78 8.47249076e+00 2.54174723e-01 
356 1215.37 8.41546693e+00 2.52464008e-01 
355 1216.95 8.47724829e+00 2.54317449e-01 
354 1218.53 8.43980336e+00 2.53194101e-01 
353 1220.11 8.51247276e+00 2.55374183e-01 
352 1221.69 8.45905084e+00 2.53771525e-01 
351 1223.27 8.50988599e+00 2.55296580e-01 
350 1224.84 8.50259315e+00 2.55077794e-01 
349 1226.42 8.55620564e+00 2.56686169e-01 
348 1227.99 8.52491761e+00 2.55747528e-01 
347 1229.56 8.64356172e+00 2.59306852e-01 
346 1231.13 8.57361010e+00 2.57208303e-01 
345 1232.70 8.66420961e+00 2.59926288e-01 
344 1234.27 8.65768666e+00 2.59730600e-01 
343 1235.84 8.65180641e+00 2.59554192e-01 
342 1237.40 8.58250604e+00 2.57475181e-01 
341 1238.96 8.56108340e+00 2.56832502e-01 
340 1240.52 8.39385832e+00 2.51815750e-01 
339 1242.08 8.50228991e+00 2.55068697e-01 
338 1243.64 8.49289898e+00 2.54786969e-01 
337 1245.20 8.54800922e+00 2.56440277e-01 
336 1246.75 8.52629086e+00 2.55788726e-01 
335 1248.31 8.59786283e+00 2.57935885e-01 
334 1249.86 8.53377450e+00 2.56013235e-01 
333 1251.41 8.58297384e+00 2.57489215e-01 
332 1252.96 8.50812764e+00 2.55243829e-01 
331 1254.51 8.52670191e+00 2.55801057e-01 
330 1256.06 8.45288978e+00 2.53586693e-01 
329 1257.61 8.41205412e+00 2.52361624e-01 
328 1259.15 8.29773478e+00 2.48932043e-01 
327 1260.69 8.22132973e+00 2.46639892e-01 
326 1262.23 8.03708589e+00 2.41112577e-01 
325 1263.77 7.98643534e+00 2.39593060e-01 
324 1265.31 7.74551434e+00 2.32365430e-01 
323 1266.85 7.74266603e+00 2.32279981e-01 
322 1268.39 7.80821074e+00 2.34246322e-01 
321 1269.92 7.97198570e+00 2.39159571e-01 
320 1271.46 8.22523020e+00 2.46756906e-01 
319 1272.99 8.35540475e+00 2.50662142e-01 
318 1274.52 8.33762869e+00 2.50128861e-01 
317 1276.05 8.39429066e+00 2.51828720e-01 
316 1277.58 8.24807178e+00 2.47442153e-01 
315 1279.10 8.09079416e+00 2.42723825e-01 
314 1280.63 8.00864394e+00 2.40259318e-01 
313 1282.15 8.00356259e+00 2.40106878e-01 
312 1283.68 8.08384866e+00 2.42515460e-01 
311 1285.20 8.28493878e+00 2.48548163e-01 
310 1286.72 8.25567346e+00 2.47670204e-01 
309 1288.24 8.28648257e+00 2.48594477e-01 
308 1289.75 8.19172523e+00 2.45751757e-01 
307 1291.27 8.23453075e+00 2.47035923e-01 
306 1292.78 8.28857186e+00 2.48657156e-01 
305 1294.30 8.31577448e+00 2.49473234e-01 
304 1295.81 8.23704700e+00 2.47111410e-01 
303 1297.32 8.21172807e+00 2.46351842e-01 
302 1298.83 8.12412189e+00 2.43723657e-01 
301 1300.34 8.07377540e+00 2.42213262e-01 
300 1301.85 7.99257136e+00 2.39777141e-01 
299 1303.35 7.93984443e+00 2.38195333e-01 
298 1304.86 7.84955001e+00 2.35486500e-01 
297 1306.36 7.83716185e+00 2.35114856e-01 
296 1307.86 7.78623214e+00 2.33586964e-01 
295 1309.36 7.71178724e+00 2.31353617e-01 
294 1310.86 7.61902052e+00 2.28570616e-01 
293 1312.36 7.53779661e+00 2.26133898e-01 
292 1313.86 7.50239938e+00 2.25071981e-01 
291 1315.36 7.53176864e+00 2.25953059e-01 
290 1316.85 7.49686062e+00 2.24905819e-01 
289 1318.34 7.49661981e+00 2.24898594e-01 
288 1319.84 7.45503302e+00 2.23650991e-01 
287 1321.33 7.42929687e+00 2.22878906e-01 
286 1322.82 7.36856870e+00 2.21057061e-01 
285 1324.30 7.30715175e+00 2.19214552e-01 
284 1325.79 7.17198178e+00 2.15159453e-01 
283 1327.28 7.05238005e+00 2.11571401e-01 
282 1328.76 6.88505649e+00 2.06551695e-01 
281 1330.25 6.80929125e+00 2.04278737e-01 
280 1331.73 6.77267502e+00 2.03180251e-01 
279 1333.21 6.76442806e+00 2.02932842e-01 
278 1334.69 6.71249442e+00 2.01374833e-01 
277 1336.17 6.61912237e+00 1.98573671e-01 
276 1337.65 6.50813080e+00 1.95243924e-01 
275 1339.12 6.45485640e+00 1.93645692e-01 
274 1340.60 6.39059038e+00 1.91717711e-01 
273 1342.07 6.32170551e+00 1.89651165e-01 
272 1343.55 6.11139956e+00 1.83341987e-01 
271 1345.02 5.63961772e+00 1.69188532e-01 
270 1346.49 5.31510989e+00 1.59453297e-01 
269 1347.96 4.97684778e+00 1.49305433e-01 
268 1349.43 4.59393619e+00 1.37818086e-01 
267 1350.89 4.23384457e+00 1.27015337e-01 
266 1352.36 3.70175352e+00 1.11052606e-01 
265 1353.82 3.43493569e+00 1.03048071e-01 
264 1355.29 3.11688146e+00 9.35064437e-02 
263 1356.75 2.86896197e+00 8.60688592e-02 
262 1358.21 2.44630340e+00 7.33891021e-02 
261 1359.67 2.06853100e+00 6.20559300e-02 
260 1361.13 1.83679103e+00 5.51037310e-02 
259 1362.59 1.82932638e+00 5.48797915e-02 
258 1364.04 1.99262123e+00 5.97786370e-02 
257 1365.50 1.99226338e+00 5.97679013e-02 
256 1366.95 1.77198902e+00 5.31596705e-02 
255 1368.41 1.97704537e+00 5.93113610e-02 
254 1369.86 1.98324944e+00 5.94974833e-02 
253 1371.31 2.17634614e+00 6.52903843e-02 
252 1372.76 2.24703747e+00 6.74111242e-02 
251 1374.21 2.48726691e+00 7.46180072e-02 
250 1375.65 2.50205788e+00 7.50617364e-02 
249 1377.10 2.27375910e+00 6.82127730e-02 
248 1378.55 1.90983832e+00 5.72951496e-02 
247 1379.99 1.55477191e+00 4.66431574e-02 
246 1381.43 1.17658852e+00 3.52976556e-02 
245 1382.87 1.37972601e+00 4.13917803e-02 
244 1384.32 1.52037274e+00 4.56111822e-02 
243 1385.75 1.76731506e+00 5.30194517e-02 
242 1387.19 2.14055562e+00 6.42166687e-02 
241 1388.63 2.31720309e+00 6.95160926e-02 
240 1390.07 2.37868007e+00 7.13604020e-02 
239 1391.50 2.30686281e+00 6.92058844e-02 
238 1392.94 1.87476199e+00 5.62428598e-02 
237 1394.37 1.92794164e+00 5.78382491e-02 
236 1395.80 2.10686859e+00 6.32060576e-02 
235 1397.23 2.01275513e+00 6.03826538e-02 
234 1398.66 2.14491430e+00 6.43474289e-02 
233 1400.09 2.33670338e+00 7.01011015e-02 
232 1401.52 2.15696663e+00 6.47089990e-02 
231 1402.94 2.37045315e+00 7.11135944e-02 
230 1404.37 2.51712559e+00 7.55137676e-02 
229 1405.79 2.37572015e+00 7.12716045e-02 
228 1407.22 2.45661835e+00 7.36985504e-02 
227 1408.64 2.63841641e+00 7.91524923e-02 
226 1410.06 2.82070133e+00 8.46210399e-02 
225 1411.48 2.85429929e+00 8.56289786e-02 
224 1412.90 3.03007578e+00 9.09022735e-02 
223 1414.32 3.14887681e+00 9.44663042e-02 
222 1415.73 3.08378714e+00 9.25136143e-02 
221 1417.15 3.14316413e+00 9.42949239e-02 
220 1418.56 3.27360065e+00 9.82080194e-02 
219 1419.98 3.22999114e+00 9.68997343e-02 
218 1421.39 3.36495360e+00 1.00948608e-01 
217 1422.80 3.56285041e+00 1.06885512e-01 
216 1424.21 3.63185983e+00 1.08955795e-01 
215 1425.62 3.65627389e+00 1.09688217e-01 
214 1427.03 3.75013585e+00 1.12504075e-01 
213 1428.44 3.55892998e+00 1.06767899e-01 
212 1429.84 3.33410564e+00 1.00023169e-01 
211 1431.25 3.29402548e+00 9.88207645e-02 
210 1432.65 3.28844544e+00 9.86533633e-02 
209 1434.06 3.39556147e+00 1.01866844e-01 
208 1435.46 3.54064312e+00 1.06219294e-01 
207 1436.86 3.58215440e+00 1.07464632e-01 
206 1438.26 3.61173862e+00 1.08352158e-01 
205 1439.66 3.62115362e+00 1.08634609e-01 
204 1441.05 3.76990265e+00 1.13097079e-01 
203 1442.45 3.72507869e+00 1.11752361e-01 
202 1443.85 3.74255271e+00 1.12276581e-01 
201 1445.24 3.87669458e+00 1.16300837e-01 
200 1446.64 3.91500602e+00 1.17450181e-01 
199 1448.03 3.85754102e+00 1.15726231e-01 
198 1449.42 3.94736673e+00 1.18421002e-01 
197 1450.81 3.95998892e+00 1.18799667e-01 
196 1452.20 3.97488824e+00 1.19246647e-01 
195 1453.59 4.22554520e+00 1.26766356e-01 
194 1454.97 4.39317124e+00 1.31795137e-01 
193 1456.36 4.42966442e+00 1.32889933e-01 
192 1457.75 4.48105699e+00 1.34431710e-01 
191 1459.13 4.45346014e+00 1.33603804e-01 
190 1460.51 4.41653210e+00 1.32495963e-01 
189 1461.90 4.27071534e+00 1.28121460e-01 
188 1463.28 4.20051810e+00 1.26015543e-01 
187 1464.66 4.09074776e+00 1.22722433e-01 
186 1466.04 4.12577042e+00 1.23773113e-01 
185 1467.41 4.02112161e+00 1.20633648e-01 
184 1468.79 3.93454253e+00 1.18036276e-01 
183 1470.17 3.87933317e+00 1.16379995e-01 
182 1471.54 3.91357277e+00 1.17407183e-01 
181 1472.92 4.00584196e+00 1.20175259e-01 
180 1474.29 4.13746215e+00 1.24123865e-01 
179 1475.66 4.16266795e+00 1.24880038e-01 
178 1477.03 4.10894582e+00 1.23268375e-01 
177 1478.40 4.09345560e+00 1.22803668e-01 
176 1479.77 4.14792903e+00 1.24437871e-01 
175 1481.14 4.16839833e+00 1.25051950e-01 
174 1482.51 4.25446725e+00 1.27634017e-01 
173 1483.87 4.24263807e+00 1.27279142e-01 
172 1485.24 4.21931115e+00 1.26579334e-01 
171 1486.60 4.17123862e+00 1.25137159e-01 
170 1487.96 4.21168424e+00 1.26350527e-01 
169 1489.32 4.20038606e+00 1.26011582e-01 
168 1490.69 4.34153627e+00 1.30246088e-01 
167 1492.04 4.36063410e+00 1.30819023e-01 
166 1493.40 4.41840057e+00 1.32552017e-01 
165 1494.76 4.39502319e+00 1.31850696e-01 
164 1496.12 4.41536747e+00 1.32461024e-01 
163 1497.47 4.38203951e+00 1.31461185e-01 
162 1498.83 4.43882021e+00 1.33164606e-01 
161 1500.18 4.28304706e+00 1.28491412e-01 
160 1501.53 4.21483908e+00 1.26445173e-01 
159 1502.89 4.11142788e+00 1.23342836e-01 
158 1504.24 4.15818479e+00 1.24745544e-01 
157 1505.59 4.19091690e+00 1.25727507e-01 
156 1506.93 4.30618213e+00 1.29185464e-01 
155 1508.28 4.32828264e+00 1.29848479e-01 
154 1509.63 4.38073554e+00 1.31422066e-01 
153 1510.97 4.33678608e+00 1.30103582e-01 
152 1512.32 4.40476186e+00 1.32142856e-01 
151 1513.66 4.33301097e+00 1.29990329e-01 
150 1515.00 4.39110625e+00 1.31733188e-01 
149 1516.34 4.34407065e+00 1.30322119e-01 
148 1517.69 4.33666921e+00 1.30100076e-01 
147 1519.02 4.25997027e+00 1.27799108e-01 
146 1520.36 4.25127788e+00 1.27538336e-01 
145 1521.70 4.18328689e+00 1.25498607e-01 
144 1523.04 4.25558393e+00 1.27667518e-01 
143 1524.37 4.21369595e+00 1.26410879e-01 
142 1525.71 4.27192987e+00 1.28157896e-01 
141 1527.04 4.20634255e+00 1.26190276e-01 
140 1528.37 4.22331116e+00 1.26699335e-01 
139 1529.70 4.14364995e+00 1.24309498e-01 
138 1531.03 4.18694603e+00 1.25608381e-01 
137 1532.36 4.13087129e+00 1.23926139e-01 
136 1533.69 4.15786966e+00 1.24736090e-01 
135 1535.02 4.07570400e+00 1.22271120e-01 
134 1536.34 4.09262792e+00 1.22778838e-01 
133 1537.67 4.04414500e+00 1.21324350e-01 
132 1538.99 4.08754484e+00 1.22626345e-01 
131 1540.31 4.05942738e+00 1.21782821e-01 
130 1541.64 4.09564331e+00 1.22869299e-01 
129 1542.96 4.06282349e+00 1.21884705e-01 
128 1544.28 4.09841725e+00 1.22952517e-01 
127 1545.60 4.00786266e+00 1.20235880e-01 
126 1546.91 4.05058350e+00 1.21517505e-01 
125 1548.23 3.97248234e+00 1.19174470e-01 
124 1549.55 4.00802478e+00 1.20240743e-01 
123 1550.86 3.93637539e+00 1.18091262e-01 
122 1552.18 3.93960338e+00 1.18188101e-01 
121 1553.49 3.88986853e+00 1.16696056e-01 
120 1554.80 3.94232828e+00 1.18269848e-01 
119 1556.11 3.85862305e+00 1.15758691e-01 
118 1557.42 3.89286766e+00 1.16786030e-01 
117 1558.73 3.82748339e+00 1.14824502e-01 
116 1560.04 3.84397582e+00 1.15319275e-01 
115 1561.34 3.76227829e+00 1.12868349e-01 
114 1562.65 3.80933700e+00 1.14280110e-01 
113 1563.95 3.73073058e+00 1.11921917e-01 
112 1565.26 3.79629546e+00 1.13888864e-01 
111 1566.56 3.67571328e+00 1.10271399e-01 
110 1567.86 3.69534671e+00 1.10860401e-01 
109 1569.16 3.59707794e+00 1.07912338e-01 
108 1570.46 3.58185409e+00 1.07455623e-01 
107 1571.76 3.49113620e+00 1.04734086e-01 
106 1573.05 3.46947632e+00 1.04084290e-01 
105 1574.35 3.34671914e+00 1.00401574e-01 
104 1575.64 3.36969849e+00 1.01090955e-01 
103 1576.94 3.33010654e+00 9.99031961e-02 
102 1578.23 3.39675568e+00 1.01902670e-01 
101 1579.52 3.38916618e+00 1.01674985e-01 
100 1580.81 3.47044822e+00 1.04113446e-01 
99 1582.10 3.40994564e+00 1.02298369e-01 
98 1583.39 3.46490068e+00 1.03947021e-01 
97 1584.68 3.38512093e+00 1.01553628e-01 
96 1585.97 3.36062778e+00 1.00818833e-01 
95 1587.25 3.26229795e+00 9.78689384e-02 
94 1588.54 3.27005689e+00 9.81017068e-02 
93 1589.82 3.20333692e+00 9.61001077e-02 
92 1591.10 3.30201303e+00 9.90603909e-02 
91 1592.38 3.26682039e+00 9.80046118e-02 
90 1593.66 3.32913223e+00 9.98739669e-02 
89 1594.94 3.25097260e+00 9.75291779e-02 
88 1596.22 3.25539439e+00 9.76618316e-02 
87 1597.50 3.14977517e+00 9.44932552e-02 
86 1598.77 3.14804773e+00 9.44414319e-02 
85 1600.05 3.03030020e+00 9.09090060e-02 
84 1601.32 3.05520813e+00 9.16562440e-02 
83 1602.59 2.98429278e+00 8.95287834e-02 
82 1603.86 3.03741486e+00 9.11224459e-02 
81 1605.13 2.95286746e+00 8.85860238e-02 
80 1606.40 3.01484967e+00 9.04454900e-02 
79 1607.67 2.89832562e+00 8.69497686e-02 
78 1608.94 2.93723553e+00 8.81170660e-02 
77 1610.20 2.88624831e+00 8.65874493e-02 
76 1611.47 2.94135468e+00 8.82406405e-02 
75 1612.73 2.89658809e+00 8.68976427e-02 
74 1614.00 2.94106956e+00 8.82320869e-02 
73 1615.26 2.85192478e+00 8.55577434e-02 
72 1616.52 2.88056852e+00 8.64170556e-02 
71 1617.78 2.78562298e+00 8.35686893e-02 
70 1619.03 2.82642491e+00 8.47927472e-02 
69 1620.29 2.77193044e+00 8.31579132e-02 
68 1621.55 2.82656550e+00 8.47969651e-02 
67 1622.80 2.76761847e+00 8.30285540e-02 
66 1624.06 2.82168837e+00 8.46506512e-02 
65 1625.31 2.73853276e+00 8.21559829e-02 
64 1626.56 2.79572260e+00 8.38716781e-02 
63 1627.81 2.68600219e+00 8.05800657e-02 
62 1629.06 2.69925289e+00 8.09775866e-02 
61 1630.31 2.60839414e+00 7.82518241e-02 
60 1631.56 2.63275580e+00 7.89826740e-02 
59 1632.80 2.54730158e+00 7.64190475e-02 
58 1634.05 2.57837463e+00 7.73512388e-02 
57 1635.29 2.46072837e+00 7.38218512e-02 
56 1636.53 2.49107248e+00 7.47321743e-02 
55 1637.77 2.34539654e+00 7.03618961e-02 
54 1639.01 2.36535977e+00 7.09607932e-02 
53 1640.25 2.27966522e+00 6.83899565e-02 
52 1641.49 2.30871110e+00 6.92613329e-02 
51 1642.73 2.21501766e+00 6.64505298e-02 
