% C0 (TOA Count Rate, /ms) for 4STAR VIS spectrometer (1044 channels) derived from 20160118starsun.mat and recorded on 2016-01-18 14:06:22.
% Data outside 2.0x the STD of 501 nm Langley residuals were screened out.
Pix Wavelength C0 C0err
0 173.18 -1.00000000e+00 -1.00000000e+00 
1 173.97 8.23454765e+01 2.47036429e+00 
2 174.77 1.67357322e+02 5.02071967e+00 
3 175.56 9.31703854e+02 2.79511156e+01 
4 176.36 1.46874349e+05 4.40623047e+03 
5 177.15 3.04234872e+05 9.12704617e+03 
6 177.94 4.87275528e+05 1.46182658e+04 
7 178.74 9.18799083e+05 2.75639725e+04 
8 179.53 1.29651616e+06 3.88954848e+04 
9 180.33 2.21182152e+06 6.63546457e+04 
10 181.12 4.00600637e+06 1.20180191e+05 
11 181.92 6.48820289e+06 1.94646087e+05 
12 182.71 8.68242793e+06 2.60472838e+05 
13 183.51 1.27238322e+07 3.81714965e+05 
14 184.30 1.81239905e+07 5.43719716e+05 
15 185.10 2.38212031e+07 7.14636094e+05 
16 185.89 3.19284552e+07 9.57853655e+05 
17 186.69 4.11874017e+07 1.23562205e+06 
18 187.49 5.29661570e+07 1.58898471e+06 
19 188.28 6.33171191e+07 1.89951357e+06 
20 189.08 7.58351980e+07 2.27505594e+06 
21 189.88 7.68965877e+07 2.30689763e+06 
22 190.67 8.31633421e+07 2.49490026e+06 
23 191.47 8.00642153e+07 2.40192646e+06 
24 192.27 6.99280128e+07 2.09784038e+06 
25 193.07 6.36468921e+07 1.90940676e+06 
26 193.86 5.21199396e+07 1.56359819e+06 
27 194.66 3.93347112e+07 1.18004134e+06 
28 195.46 3.40078645e+07 1.02023594e+06 
29 196.26 2.53427043e+07 7.60281128e+05 
30 197.05 1.96627625e+07 5.89882876e+05 
31 197.85 1.43389733e+07 4.30169199e+05 
32 198.65 1.11196352e+07 3.33589055e+05 
33 199.45 8.24948939e+06 2.47484682e+05 
34 200.25 5.96061787e+06 1.78818536e+05 
35 201.05 4.48622952e+06 1.34586886e+05 
36 201.85 3.21745685e+06 9.65237056e+04 
37 202.64 2.39169683e+06 7.17509050e+04 
38 203.44 1.78103579e+06 5.34310738e+04 
39 204.24 1.29738088e+06 3.89214263e+04 
40 205.04 9.79160129e+05 2.93748039e+04 
41 205.84 7.28846301e+05 2.18653890e+04 
42 206.64 5.28372984e+05 1.58511895e+04 
43 207.44 5.90705658e+05 1.77211697e+04 
44 208.24 4.36026252e+05 1.30807876e+04 
45 209.04 3.20265414e+05 9.60796242e+03 
46 209.84 2.31524508e+05 6.94573525e+03 
47 210.64 1.73225984e+05 5.19677953e+03 
48 211.44 1.27117125e+05 3.81351374e+03 
49 212.24 9.21258774e+04 2.76377632e+03 
50 213.05 6.92279071e+04 2.07683721e+03 
51 213.85 5.05041418e+04 1.51512425e+03 
52 214.65 3.61630944e+04 1.08489283e+03 
53 215.45 2.71567758e+04 8.14703274e+02 
54 216.25 1.98869418e+04 5.96608255e+02 
55 217.05 1.43363784e+04 4.30091353e+02 
56 217.85 1.05721888e+04 3.17165664e+02 
57 218.65 8.00974102e+03 2.40292231e+02 
58 219.46 5.73730965e+03 1.72119290e+02 
59 220.26 4.30069728e+03 1.29020918e+02 
60 221.06 3.13529236e+03 9.40587709e+01 
61 221.86 2.26356350e+03 6.79069050e+01 
62 222.66 1.69690835e+03 5.09072505e+01 
63 223.47 1.26304293e+03 3.78912878e+01 
64 224.27 9.41503238e+02 2.82450972e+01 
65 225.07 6.61182803e+02 1.98354841e+01 
66 225.87 5.04784394e+02 1.51435318e+01 
67 226.68 3.64998821e+02 1.09499646e+01 
68 227.48 2.72872465e+02 8.18617395e+00 
69 228.28 2.10297665e+02 6.30892995e+00 
70 229.09 1.64666748e+02 4.94000244e+00 
71 229.89 1.43400567e+02 4.30201700e+00 
72 230.69 1.40224129e+02 4.20672387e+00 
73 231.49 1.62091140e+02 4.86273420e+00 
74 232.30 2.14129617e+02 6.42388852e+00 
75 233.10 2.85459045e+02 8.56377134e+00 
76 233.91 4.08679749e+02 1.22603925e+01 
77 234.71 5.74892774e+02 1.72467832e+01 
78 235.51 8.20283011e+02 2.46084903e+01 
79 236.32 1.19477212e+03 3.58431637e+01 
80 237.12 1.66778233e+03 5.00334700e+01 
81 237.92 2.45428506e+03 7.36285519e+01 
82 238.73 3.55410437e+03 1.06623131e+02 
83 239.53 5.03879539e+03 1.51163862e+02 
84 240.34 7.22814312e+03 2.16844294e+02 
85 241.14 1.02959086e+04 3.08877259e+02 
86 241.94 1.47350172e+04 4.42050517e+02 
87 242.75 1.98895068e+04 5.96685203e+02 
88 243.55 2.80548197e+04 8.41644591e+02 
89 244.36 3.78857160e+04 1.13657148e+03 
90 245.16 4.96665829e+04 1.48999749e+03 
91 245.97 6.57984055e+04 1.97395217e+03 
92 246.77 8.25107308e+04 2.47532192e+03 
93 247.58 1.06992146e+05 3.20976438e+03 
94 248.38 1.30769501e+05 3.92308502e+03 
95 249.19 1.63916667e+05 4.91750001e+03 
96 249.99 1.92740223e+05 5.78220670e+03 
97 250.80 2.16179687e+05 6.48539060e+03 
98 251.60 2.53387724e+05 7.60163172e+03 
99 252.41 2.75462996e+05 8.26388989e+03 
100 253.21 2.92273787e+05 8.76821362e+03 
101 254.02 3.13260512e+05 9.39781537e+03 
102 254.83 3.20677076e+05 9.62031229e+03 
103 255.63 3.11341097e+05 9.34023291e+03 
104 256.44 2.96666353e+05 8.89999059e+03 
105 257.24 2.76148088e+05 8.28444265e+03 
106 258.05 2.44864036e+05 7.34592109e+03 
107 258.85 2.25241305e+05 6.75723914e+03 
108 259.66 1.86644686e+05 5.59934058e+03 
109 260.46 1.60657056e+05 4.81971167e+03 
110 261.27 1.31308097e+05 3.93924291e+03 
111 262.08 1.02522824e+05 3.07568471e+03 
112 262.88 7.64386296e+04 2.29315889e+03 
113 263.69 5.80541518e+04 1.74162455e+03 
114 264.50 4.50038614e+04 1.35011584e+03 
115 265.30 3.40271927e+04 1.02081578e+03 
116 266.11 2.40783468e+04 7.22350405e+02 
117 266.91 1.74505735e+04 5.23517205e+02 
118 267.72 1.19352364e+04 3.58057093e+02 
119 268.53 8.31278253e+03 2.49383476e+02 
120 269.33 5.71909803e+03 1.71572941e+02 
121 270.14 3.90401927e+03 1.17120578e+02 
122 270.95 2.78058709e+03 8.34176126e+01 
123 271.75 1.84755073e+03 5.54265219e+01 
124 272.56 1.28463183e+03 3.85389550e+01 
125 273.37 8.36026626e+02 2.50807988e+01 
126 274.17 5.55487758e+02 1.66646327e+01 
127 274.98 3.70650162e+02 1.11195049e+01 
128 275.79 2.58785506e+02 7.76356517e+00 
129 276.59 1.82678829e+02 5.48036486e+00 
130 277.40 1.30616206e+02 3.91848618e+00 
131 278.21 9.00724919e+01 2.70217476e+00 
132 279.01 6.59653635e+01 1.97896090e+00 
133 279.82 4.56928775e+01 1.37078632e+00 
134 280.63 3.22412236e+01 9.67236709e-01 
135 281.44 2.38488311e+01 7.15464934e-01 
136 282.24 1.72695957e+01 5.18087872e-01 
137 283.05 1.29850743e+01 3.89552228e-01 
138 283.86 9.96785010e+00 2.99035503e-01 
139 284.66 7.74136018e+00 2.32240805e-01 
140 285.47 6.13447731e+00 1.84034319e-01 
141 286.28 4.89448760e+00 1.46834628e-01 
142 287.09 4.05444093e+00 1.21633228e-01 
143 287.89 3.25194232e+00 9.75582695e-02 
144 288.70 2.68252175e+00 8.04756524e-02 
145 289.51 2.27320969e+00 6.81962907e-02 
146 290.32 1.97554768e+00 5.92664304e-02 
147 291.12 1.70822198e+00 5.12466595e-02 
148 291.93 1.49347875e+00 4.48043626e-02 
149 292.74 1.30395434e+00 3.91186301e-02 
150 293.55 1.17636676e+00 3.52910029e-02 
151 294.35 1.02951784e+00 3.08855353e-02 
152 295.16 9.67381231e-01 2.90214369e-02 
153 295.97 8.89431552e-01 2.66829466e-02 
154 296.78 8.21243080e-01 2.46372924e-02 
155 297.58 7.66545334e-01 2.29963600e-02 
156 298.39 7.08617616e-01 2.12585285e-02 
157 299.20 6.75478734e-01 2.02643620e-02 
158 300.01 6.36287753e-01 1.90886326e-02 
159 300.81 6.17584733e-01 1.85275420e-02 
160 301.62 5.95047453e-01 1.78514236e-02 
161 302.43 5.69056785e-01 1.70717036e-02 
162 303.24 5.64873795e-01 1.69462138e-02 
163 304.05 5.44024288e-01 1.63207286e-02 
164 304.85 5.23181533e-01 1.56954460e-02 
165 305.66 5.17476089e-01 1.55242827e-02 
166 306.47 4.98780367e-01 1.49634110e-02 
167 307.28 5.02752854e-01 1.50825856e-02 
168 308.08 5.03334046e-01 1.51000214e-02 
169 308.89 4.90328551e-01 1.47098565e-02 
170 309.70 4.77779839e-01 1.43333952e-02 
171 310.51 4.88938430e-01 1.46681529e-02 
172 311.32 4.77577526e-01 1.43273258e-02 
173 312.12 4.84569039e-01 1.45370712e-02 
174 312.93 4.92187974e-01 1.47656392e-02 
175 313.74 4.85008035e-01 1.45502410e-02 
176 314.55 4.79876279e-01 1.43962884e-02 
177 315.36 4.99103836e-01 1.49731151e-02 
178 316.16 4.97609999e-01 1.49283000e-02 
179 316.97 5.00923960e-01 1.50277188e-02 
180 317.78 5.05242077e-01 1.51572623e-02 
181 318.59 5.17012599e-01 1.55103780e-02 
182 319.39 5.27938121e-01 1.58381436e-02 
183 320.20 5.26959900e-01 1.58087970e-02 
184 321.01 5.40443603e-01 1.62133081e-02 
185 321.82 5.47982929e-01 1.64394879e-02 
186 322.63 5.74172678e-01 1.72251803e-02 
187 323.43 5.94601703e-01 1.78380511e-02 
188 324.24 5.88850420e-01 1.76655126e-02 
189 325.05 6.24371887e-01 1.87311566e-02 
190 325.86 6.32521777e-01 1.89756533e-02 
191 326.67 6.61067033e-01 1.98320110e-02 
192 327.48 6.68485855e-01 2.00545757e-02 
193 328.28 6.99167069e-01 2.09750121e-02 
194 329.09 7.43918470e-01 2.23175541e-02 
195 329.90 7.44656476e-01 2.23396943e-02 
196 330.71 7.93538117e-01 2.38061435e-02 
197 331.51 8.49738216e-01 2.54921465e-02 
198 332.32 9.32835021e-01 2.79850506e-02 
199 333.13 1.12352202e+00 3.37056606e-02 
200 333.94 1.44876735e+00 4.34630205e-02 
201 334.75 1.99203107e+00 5.97609322e-02 
202 335.56 2.82115463e+00 8.46346390e-02 
203 336.36 4.04218041e+00 1.21265412e-01 
204 337.17 5.98240065e+00 1.79472019e-01 
205 337.98 8.81819603e+00 2.64545881e-01 
206 338.79 1.23822309e+01 3.71466927e-01 
207 339.59 1.63576938e+01 4.90730815e-01 
208 340.40 2.00292506e+01 6.00877517e-01 
209 341.21 2.31017735e+01 6.93053205e-01 
210 342.02 2.67046314e+01 8.01138943e-01 
211 342.83 3.00413569e+01 9.01240708e-01 
212 343.64 3.10204935e+01 9.30614804e-01 
213 344.44 3.22096264e+01 9.66288792e-01 
214 345.25 3.59016849e+01 1.07705055e+00 
215 346.06 3.95604133e+01 1.18681240e+00 
216 346.87 4.20248396e+01 1.26074519e+00 
217 347.67 4.37106311e+01 1.31131893e+00 
218 348.48 4.52649805e+01 1.35794942e+00 
219 349.29 4.79951899e+01 1.43985570e+00 
220 350.10 5.27678099e+01 1.58303430e+00 
221 350.91 5.62711757e+01 1.68813527e+00 
222 351.71 5.65471349e+01 1.69641405e+00 
223 352.52 5.75702792e+01 1.72710837e+00 
224 353.33 6.27450135e+01 1.88235040e+00 
225 354.14 6.93961499e+01 2.08188450e+00 
226 354.94 7.25895486e+01 2.17768646e+00 
227 355.75 7.16188546e+01 2.14856564e+00 
228 356.56 6.76232832e+01 2.02869850e+00 
229 357.37 6.35746362e+01 1.90723909e+00 
230 358.18 6.26480799e+01 1.87944240e+00 
231 358.98 7.00555614e+01 2.10166684e+00 
232 359.79 8.12984599e+01 2.43895380e+00 
233 360.60 8.32285895e+01 2.49685768e+00 
234 361.41 8.19361935e+01 2.45808581e+00 
235 362.21 8.62873828e+01 2.58862148e+00 
236 363.02 9.15699809e+01 2.74709943e+00 
237 363.83 9.47289457e+01 2.84186837e+00 
238 364.64 9.92025816e+01 2.97607745e+00 
239 365.44 1.08056221e+02 3.24168662e+00 
240 366.25 1.16227154e+02 3.48681461e+00 
241 367.06 1.17578351e+02 3.52735054e+00 
242 367.87 1.15769184e+02 3.47307553e+00 
243 368.67 1.17256712e+02 3.51770136e+00 
244 369.48 1.22411416e+02 3.67234248e+00 
245 370.29 1.23805817e+02 3.71417451e+00 
246 371.10 1.22494437e+02 3.67483311e+00 
247 371.90 1.19576241e+02 3.58728724e+00 
248 372.71 1.13128717e+02 3.39386151e+00 
249 373.52 1.06747055e+02 3.20241165e+00 
250 374.33 1.05912549e+02 3.17737646e+00 
251 375.13 1.13180629e+02 3.39541888e+00 
252 375.94 1.23391244e+02 3.70173732e+00 
253 376.75 1.34336360e+02 4.03009079e+00 
254 377.55 1.47121609e+02 4.41364828e+00 
255 378.36 1.51303580e+02 4.53910741e+00 
256 379.17 1.43962715e+02 4.31888145e+00 
257 379.98 1.40320129e+02 4.20960388e+00 
258 380.78 1.40310492e+02 4.20931477e+00 
259 381.59 1.28784038e+02 3.86352113e+00 
260 382.40 1.09907149e+02 3.29721446e+00 
261 383.21 1.00514670e+02 3.01544009e+00 
262 384.01 1.08492817e+02 3.25478451e+00 
263 384.82 1.22994624e+02 3.68983872e+00 
264 385.63 1.29631749e+02 3.88895246e+00 
265 386.43 1.30963938e+02 3.92891813e+00 
266 387.24 1.32039932e+02 3.96119795e+00 
267 388.05 1.34248222e+02 4.02744667e+00 
268 388.85 1.42303131e+02 4.26909393e+00 
269 389.66 1.55780923e+02 4.67342770e+00 
270 390.47 1.66968415e+02 5.00905246e+00 
271 391.27 1.68637152e+02 5.05911457e+00 
272 392.08 1.51730305e+02 4.55190914e+00 
273 392.89 1.23757644e+02 3.71272931e+00 
274 393.69 1.16052734e+02 3.48158203e+00 
275 394.50 1.38038688e+02 4.14116065e+00 
276 395.31 1.55864143e+02 4.67592430e+00 
277 396.11 1.46781761e+02 4.40345284e+00 
278 396.92 1.38493280e+02 4.15479840e+00 
279 397.73 1.62293709e+02 4.86881128e+00 
280 398.53 2.01114141e+02 6.03342424e+00 
281 399.34 2.26621293e+02 6.79863880e+00 
282 400.15 2.39143225e+02 7.17429676e+00 
283 400.95 2.47824627e+02 7.43473880e+00 
284 401.76 2.54848304e+02 7.64544912e+00 
285 402.57 2.57320602e+02 7.71961807e+00 
286 403.37 2.56064778e+02 7.68194333e+00 
287 404.18 2.54774795e+02 7.64324385e+00 
288 404.98 2.53561541e+02 7.60684623e+00 
289 405.79 2.52225829e+02 7.56677488e+00 
290 406.60 2.52821084e+02 7.58463251e+00 
291 407.40 2.58892262e+02 7.76676786e+00 
292 408.21 2.68753772e+02 8.06261317e+00 
293 409.02 2.73150936e+02 8.19452807e+00 
294 409.82 2.70355788e+02 8.11067363e+00 
295 410.63 2.72941547e+02 8.18824642e+00 
296 411.44 2.84290463e+02 8.52871389e+00 
297 412.24 2.92478963e+02 8.77436888e+00 
298 413.05 2.93671817e+02 8.81015451e+00 
299 413.85 2.93633690e+02 8.80901069e+00 
300 414.66 2.94427499e+02 8.83282498e+00 
301 415.46 2.95910338e+02 8.87731013e+00 
302 416.27 2.96499433e+02 8.89498300e+00 
303 417.08 2.93197850e+02 8.79593550e+00 
304 417.88 2.88256763e+02 8.64770288e+00 
305 418.69 2.86011489e+02 8.58034468e+00 
306 419.49 2.86833086e+02 8.60499259e+00 
307 420.30 2.90674265e+02 8.72022794e+00 
308 421.11 2.94284653e+02 8.82853958e+00 
309 421.91 2.92687554e+02 8.78062661e+00 
310 422.72 2.88139705e+02 8.64419114e+00 
311 423.52 2.87755794e+02 8.63267381e+00 
312 424.33 2.90795920e+02 8.72387760e+00 
313 425.13 2.92614982e+02 8.77844947e+00 
314 425.94 2.92230455e+02 8.76691365e+00 
315 426.74 2.91008864e+02 8.73026593e+00 
316 427.55 2.89586723e+02 8.68760168e+00 
317 428.35 2.85197474e+02 8.55592421e+00 
318 429.16 2.73569844e+02 8.20709532e+00 
319 429.96 2.60746742e+02 7.82240226e+00 
320 430.77 2.65511411e+02 7.96534234e+00 
321 431.58 2.91458172e+02 8.74374517e+00 
322 432.38 3.19365805e+02 9.58097415e+00 
323 433.19 3.32633476e+02 9.97900429e+00 
324 433.99 3.38466415e+02 1.01539925e+01 
325 434.80 3.49918259e+02 1.04975478e+01 
326 435.60 3.67097896e+02 1.10129369e+01 
327 436.41 3.79136786e+02 1.13741036e+01 
328 437.21 3.78858685e+02 1.13657606e+01 
329 438.02 3.73112135e+02 1.11933640e+01 
330 438.82 3.73591592e+02 1.12077477e+01 
331 439.63 3.83298826e+02 1.14989648e+01 
332 440.43 3.98525505e+02 1.19557652e+01 
333 441.24 4.14312376e+02 1.24293713e+01 
334 442.04 4.28393852e+02 1.28518156e+01 
335 442.84 4.38080406e+02 1.31424122e+01 
336 443.65 4.43493892e+02 1.33048168e+01 
337 444.45 4.45257306e+02 1.33577192e+01 
338 445.26 4.44540853e+02 1.33362256e+01 
339 446.06 4.47442609e+02 1.34232783e+01 
340 446.87 4.57050753e+02 1.37115226e+01 
341 447.67 4.69846466e+02 1.40953940e+01 
342 448.48 4.79900446e+02 1.43970134e+01 
343 449.28 4.88989099e+02 1.46696730e+01 
344 450.09 4.99040206e+02 1.49712062e+01 
345 450.89 5.04992655e+02 1.51497797e+01 
346 451.69 5.00875220e+02 1.50262566e+01 
347 452.50 4.91305313e+02 1.47391594e+01 
348 453.30 4.86247222e+02 1.45874167e+01 
349 454.11 4.88746414e+02 1.46623924e+01 
350 454.91 4.96635536e+02 1.48990661e+01 
351 455.72 5.05327063e+02 1.51598119e+01 
352 456.52 5.12371810e+02 1.53711543e+01 
353 457.32 5.15377139e+02 1.54613142e+01 
354 458.13 5.14195813e+02 1.54258744e+01 
355 458.93 5.12997097e+02 1.53899129e+01 
356 459.74 5.15747209e+02 1.54724163e+01 
357 460.54 5.22432368e+02 1.56729711e+01 
358 461.34 5.30120639e+02 1.59036192e+01 
359 462.15 5.35522830e+02 1.60656849e+01 
360 462.95 5.36211498e+02 1.60863450e+01 
361 463.76 5.33220858e+02 1.59966258e+01 
362 464.56 5.29847751e+02 1.58954325e+01 
363 465.36 5.27219487e+02 1.58165846e+01 
364 466.17 5.25713238e+02 1.57713971e+01 
365 466.97 5.26177734e+02 1.57853320e+01 
366 467.77 5.28690386e+02 1.58607116e+01 
367 468.58 5.31816679e+02 1.59545004e+01 
368 469.38 5.32763453e+02 1.59829036e+01 
369 470.18 5.33507706e+02 1.60052312e+01 
370 470.99 5.38633758e+02 1.61590128e+01 
371 471.79 5.46615518e+02 1.63984656e+01 
372 472.59 5.53938628e+02 1.66181588e+01 
373 473.40 5.59073269e+02 1.67721981e+01 
374 474.20 5.62353425e+02 1.68706028e+01 
375 475.00 5.64518110e+02 1.69355433e+01 
376 475.81 5.66056948e+02 1.69817084e+01 
377 476.61 5.68942230e+02 1.70682669e+01 
378 477.41 5.74303309e+02 1.72290993e+01 
379 478.21 5.79855823e+02 1.73956747e+01 
380 479.02 5.83787146e+02 1.75136144e+01 
381 479.82 5.86106812e+02 1.75832043e+01 
382 480.62 5.88735250e+02 1.76620575e+01 
383 481.43 5.90162419e+02 1.77048726e+01 
384 482.23 5.89276056e+02 1.76782817e+01 
385 483.03 5.85027298e+02 1.75508189e+01 
386 483.84 5.75340657e+02 1.72602197e+01 
387 484.64 5.56900950e+02 1.67070285e+01 
388 485.44 5.34305433e+02 1.60291630e+01 
389 486.24 5.20552210e+02 1.56165663e+01 
390 487.05 5.22132125e+02 1.56639637e+01 
391 487.85 5.36416343e+02 1.60924903e+01 
392 488.65 5.54104091e+02 1.66231227e+01 
393 489.45 5.66516450e+02 1.69954935e+01 
394 490.26 5.70978147e+02 1.71293444e+01 
395 491.06 5.69339453e+02 1.70801836e+01 
396 491.86 5.65527869e+02 1.69658361e+01 
397 492.66 5.65017817e+02 1.69505345e+01 
398 493.46 5.70187375e+02 1.71056213e+01 
399 494.27 5.76775344e+02 1.73032603e+01 
400 495.07 5.80608067e+02 1.74182420e+01 
401 495.87 5.82365084e+02 1.74709525e+01 
402 496.67 5.80304270e+02 1.74091281e+01 
403 497.48 5.75882063e+02 1.72764619e+01 
404 498.28 5.71204417e+02 1.71361325e+01 
405 499.08 5.65606708e+02 1.69682012e+01 
406 499.88 5.59570785e+02 1.67871236e+01 
407 500.68 5.54492897e+02 1.66347869e+01 
408 501.48 5.51870989e+02 1.65561297e+01 
409 502.29 5.53538216e+02 1.66061465e+01 
410 503.09 5.57314569e+02 1.67194371e+01 
411 503.89 5.62318476e+02 1.68695543e+01 
412 504.69 5.68127753e+02 1.70438326e+01 
413 505.49 5.72759878e+02 1.71827964e+01 
414 506.29 5.74058727e+02 1.72217618e+01 
415 507.09 5.71807414e+02 1.71542224e+01 
416 507.90 5.68763662e+02 1.70629099e+01 
417 508.70 5.67503165e+02 1.70250949e+01 
418 509.50 5.67999762e+02 1.70399929e+01 
419 510.30 5.69246026e+02 1.70773808e+01 
420 511.10 5.68602545e+02 1.70580764e+01 
421 511.90 5.65289109e+02 1.69586733e+01 
422 512.70 5.59607943e+02 1.67882383e+01 
423 513.51 5.53106577e+02 1.65931973e+01 
424 514.31 5.47763408e+02 1.64329022e+01 
425 515.11 5.39799416e+02 1.61939825e+01 
426 515.91 5.26216603e+02 1.57864981e+01 
427 516.71 5.11985047e+02 1.53595514e+01 
428 517.51 5.03440528e+02 1.51032159e+01 
429 518.31 5.06020085e+02 1.51806026e+01 
430 519.11 5.17943111e+02 1.55382933e+01 
431 519.91 5.30673056e+02 1.59201917e+01 
432 520.71 5.40275327e+02 1.62082598e+01 
433 521.51 5.44427372e+02 1.63328212e+01 
434 522.32 5.46507257e+02 1.63952177e+01 
435 523.12 5.50275321e+02 1.65082596e+01 
436 523.92 5.54253813e+02 1.66276144e+01 
437 524.72 5.54439389e+02 1.66331817e+01 
438 525.52 5.47440540e+02 1.64232162e+01 
439 526.32 5.38125830e+02 1.61437749e+01 
440 527.12 5.36010195e+02 1.60803058e+01 
441 527.92 5.42886951e+02 1.62866085e+01 
442 528.72 5.55015612e+02 1.66504683e+01 
443 529.52 5.65958750e+02 1.69787625e+01 
444 530.32 5.70994276e+02 1.71298283e+01 
445 531.12 5.69374395e+02 1.70812318e+01 
446 531.92 5.64257437e+02 1.69277231e+01 
447 532.72 5.59450999e+02 1.67835300e+01 
448 533.52 5.58627546e+02 1.67588264e+01 
449 534.32 5.62730702e+02 1.68819210e+01 
450 535.12 5.67324689e+02 1.70197407e+01 
451 535.92 5.68402874e+02 1.70520862e+01 
452 536.72 5.67069599e+02 1.70120880e+01 
453 537.52 5.64601528e+02 1.69380458e+01 
454 538.32 5.60921745e+02 1.68276523e+01 
455 539.12 5.56201420e+02 1.66860426e+01 
456 539.92 5.51732805e+02 1.65519841e+01 
457 540.72 5.49981550e+02 1.64994465e+01 
458 541.52 5.51621056e+02 1.65486317e+01 
459 542.32 5.56047310e+02 1.66814193e+01 
460 543.12 5.60494846e+02 1.68148454e+01 
461 543.92 5.63699151e+02 1.69109745e+01 
462 544.72 5.65605233e+02 1.69681570e+01 
463 545.52 5.65431310e+02 1.69629393e+01 
464 546.31 5.62985801e+02 1.68895740e+01 
465 547.12 5.59931952e+02 1.67979586e+01 
466 547.91 5.58321860e+02 1.67496558e+01 
467 548.71 5.58029244e+02 1.67408773e+01 
468 549.51 5.58363604e+02 1.67509081e+01 
469 550.31 5.58084758e+02 1.67425427e+01 
470 551.11 5.57316690e+02 1.67195007e+01 
471 551.91 5.56742943e+02 1.67022883e+01 
472 552.71 5.56615937e+02 1.66984781e+01 
