% C0 (TOA Count Rate, /ms) for 4STAR NIR spectrometer (512 channels) derived from MLONov2016 and recorded on 2017-04-07 10:21:05.
% Based on mean of the c0s from 20161110, 20161111, 20161112, and 20161113, ***and now adding BOTH langleys on 20161115 (AM and PM)***, which (except for these last two) were before the weird drop and spectro issues we saw.  1115 was a straight fit, but exhibited a drop in magnitude relative to the first four.  C0err=2*stdev the variability within these 6 langleys.
Pix Wavelength C0 C0err
511 949.79 4.51009035e+00 2.08279740e+00 
510 949.79 5.08593512e+00 9.97610155e-01 
509 951.68 5.47995314e+00 1.00176949e+00 
508 953.57 5.54524381e+00 9.95010356e-01 
507 955.46 6.01718900e+00 1.03753886e+00 
506 957.34 6.14500712e+00 1.01417639e+00 
505 959.22 6.66451602e+00 9.80282826e-01 
504 961.10 6.80290897e+00 8.93593455e-01 
503 962.98 7.29049662e+00 7.99338474e-01 
502 964.85 7.34523975e+00 6.79749864e-01 
501 966.72 7.91790125e+00 5.32014685e-01 
500 968.59 8.00525361e+00 4.01158248e-01 
499 970.45 8.40510552e+00 3.48054507e-01 
498 972.32 8.35576807e+00 3.71650422e-01 
497 974.18 8.68306225e+00 4.02601880e-01 
496 976.04 8.62415901e+00 3.74317135e-01 
495 977.89 8.98768336e+00 3.14115191e-01 
494 979.74 8.92104063e+00 2.17890455e-01 
493 981.59 9.23051272e+00 1.53399587e-01 
492 983.44 9.13833218e+00 1.16303406e-01 
491 985.29 9.39718549e+00 9.82539455e-02 
490 987.13 9.22291005e+00 1.21341570e-01 
489 988.97 9.48900048e+00 1.37728012e-01 
488 990.81 9.29022048e+00 1.35156552e-01 
487 992.65 9.47195651e+00 1.37027439e-01 
486 994.48 9.27826606e+00 1.17565594e-01 
485 996.31 9.40636588e+00 1.25647774e-01 
484 998.14 9.16010587e+00 1.18507740e-01 
483 999.97 9.32949961e+00 1.33428023e-01 
482 1001.79 9.05369265e+00 1.51296402e-01 
481 1003.62 9.16574798e+00 1.88751248e-01 
480 1005.44 8.95851304e+00 2.13427689e-01 
479 1007.25 9.20985572e+00 2.30920408e-01 
478 1009.07 8.99666301e+00 2.36026411e-01 
477 1010.88 9.14109942e+00 2.26537215e-01 
476 1012.69 8.86065170e+00 2.14715067e-01 
475 1014.50 8.96346378e+00 2.01855648e-01 
474 1016.31 8.72762654e+00 1.73610064e-01 
473 1018.11 8.87774230e+00 1.78255343e-01 
472 1019.91 8.63460761e+00 1.78718506e-01 
471 1021.71 8.79390134e+00 1.94481231e-01 
470 1023.51 8.56149501e+00 1.82555720e-01 
469 1025.30 8.70662064e+00 1.53357537e-01 
468 1027.09 8.58286339e+00 1.21829854e-01 
467 1028.88 8.71061985e+00 9.49193295e-02 
466 1030.67 8.54279705e+00 7.58957591e-02 
465 1032.46 8.70231037e+00 5.85451135e-02 
464 1034.24 8.55711448e+00 5.81382266e-02 
463 1036.02 8.75497583e+00 4.50111573e-02 
462 1037.80 8.63829177e+00 5.31816390e-02 
461 1039.58 8.83941718e+00 3.65626065e-02 
460 1041.35 8.69080189e+00 4.04874050e-02 
459 1043.12 8.86460945e+00 4.80027486e-02 
458 1044.89 8.79674440e+00 7.77318481e-02 
457 1046.66 9.02399218e+00 9.08486367e-02 
456 1048.43 8.97190074e+00 1.16858152e-01 
455 1050.19 9.21603867e+00 1.44915169e-01 
454 1051.95 9.08720423e+00 1.81901893e-01 
453 1053.71 9.32737001e+00 1.77035211e-01 
452 1055.47 9.13979608e+00 1.42749645e-01 
451 1057.23 9.26896404e+00 1.22712156e-01 
450 1058.98 9.08903946e+00 1.02085515e-01 
449 1060.73 9.27946632e+00 1.25796586e-01 
448 1062.48 9.09254956e+00 1.45508936e-01 
447 1064.23 9.23214554e+00 1.74972940e-01 
446 1065.97 8.96613239e+00 1.95610347e-01 
445 1067.71 9.00033340e+00 1.85128696e-01 
444 1069.46 8.79763401e+00 1.79316875e-01 
443 1071.19 8.87323251e+00 1.34525727e-01 
442 1072.93 8.70914918e+00 1.12634408e-01 
441 1074.67 8.81961343e+00 9.46432782e-02 
440 1076.40 8.61194799e+00 1.01495752e-01 
439 1078.13 8.65443546e+00 1.13243035e-01 
438 1079.86 8.42587162e+00 1.01060539e-01 
437 1081.58 8.48392119e+00 1.01271116e-01 
436 1083.31 8.35070402e+00 1.21255717e-01 
435 1085.03 8.52076213e+00 1.25433938e-01 
434 1086.75 8.45635603e+00 1.45998038e-01 
433 1088.47 8.60622327e+00 1.65633319e-01 
432 1090.19 8.50654328e+00 1.89565082e-01 
431 1091.90 8.61170332e+00 2.13138047e-01 
430 1093.61 8.49146087e+00 2.11134578e-01 
429 1095.33 8.70986490e+00 2.44130320e-01 
428 1097.03 8.72076241e+00 2.92773036e-01 
427 1098.74 8.98142421e+00 3.70207458e-01 
426 1100.45 9.00902262e+00 4.38452846e-01 
425 1102.15 9.28217169e+00 5.01227489e-01 
424 1103.85 9.25440507e+00 5.65133028e-01 
423 1105.55 9.43776145e+00 6.54115701e-01 
422 1107.25 9.28230301e+00 7.16560374e-01 
421 1108.94 9.33149020e+00 8.64263710e-01 
420 1110.64 8.98078125e+00 1.10422602e+00 
419 1112.33 8.75224455e+00 1.49842095e+00 
418 1114.02 8.13341042e+00 1.93122226e+00 
417 1115.70 7.94220106e+00 2.21869806e+00 
416 1117.39 7.62648429e+00 2.32594664e+00 
415 1119.07 7.52399185e+00 2.42336104e+00 
414 1120.76 7.35558572e+00 2.34730340e+00 
413 1122.44 7.31482217e+00 2.46083569e+00 
412 1124.12 7.30938621e+00 2.44963236e+00 
411 1125.79 7.61335973e+00 2.48977704e+00 
410 1127.47 7.82026426e+00 2.49655037e+00 
409 1129.14 8.26242065e+00 2.30718441e+00 
408 1130.81 7.70743864e+00 2.40921511e+00 
407 1132.48 7.48229782e+00 2.40912406e+00 
406 1134.15 7.37626052e+00 2.30857906e+00 
405 1135.81 7.87969080e+00 2.03735310e+00 
404 1137.48 8.67224584e+00 1.62761563e+00 
403 1139.14 9.02826771e+00 1.49581344e+00 
402 1140.80 8.68453098e+00 1.72115429e+00 
401 1142.46 8.47460677e+00 2.01115915e+00 
400 1144.12 8.05395303e+00 2.28964682e+00 
399 1145.77 8.01939955e+00 2.40470159e+00 
398 1147.43 8.04230970e+00 2.25644463e+00 
397 1149.08 8.32223026e+00 1.93845624e+00 
396 1150.73 8.33814468e+00 1.83643310e+00 
395 1152.38 8.67919358e+00 1.62613101e+00 
394 1154.02 8.72956126e+00 1.46246496e+00 
393 1155.67 9.06897154e+00 1.25805285e+00 
392 1157.31 9.03858261e+00 1.05614393e+00 
391 1158.95 9.21820609e+00 8.93427276e-01 
390 1160.59 9.24578845e+00 7.25787934e-01 
389 1162.23 9.50232196e+00 6.35068066e-01 
388 1163.87 9.45415443e+00 5.60124855e-01 
387 1165.50 9.52696935e+00 5.59256519e-01 
386 1167.13 9.42611485e+00 4.90389620e-01 
385 1168.76 9.50688176e+00 3.87410320e-01 
384 1170.39 9.35431704e+00 4.14722894e-01 
383 1172.02 9.34471124e+00 4.30230346e-01 
382 1173.65 9.15940256e+00 4.51467750e-01 
381 1175.27 9.13202303e+00 4.36936475e-01 
380 1176.90 9.01336719e+00 3.61352598e-01 
379 1178.52 8.93284519e+00 4.49089683e-01 
378 1180.14 8.72487534e+00 4.23567384e-01 
377 1181.75 8.70127222e+00 4.46049241e-01 
376 1183.37 8.52774486e+00 4.39736058e-01 
375 1184.99 8.54243464e+00 4.50442206e-01 
374 1186.60 8.45574607e+00 4.17808295e-01 
373 1188.21 8.46314478e+00 3.81896342e-01 
372 1189.82 8.42490111e+00 3.21785232e-01 
371 1191.43 8.63124135e+00 2.85521692e-01 
370 1193.04 8.52437789e+00 2.70019920e-01 
369 1194.64 8.51033493e+00 2.87409684e-01 
368 1196.24 8.32268405e+00 3.16783412e-01 
367 1197.85 8.36039868e+00 3.41927379e-01 
366 1199.45 8.23181101e+00 3.98375176e-01 
365 1201.05 8.31125512e+00 4.24056508e-01 
364 1202.64 8.24567525e+00 3.78223409e-01 
363 1204.24 8.30646749e+00 3.40170565e-01 
362 1205.83 8.28985602e+00 2.75552546e-01 
361 1207.43 8.29618255e+00 2.41182329e-01 
360 1209.02 8.20008281e+00 2.25036717e-01 
359 1210.61 8.30616611e+00 2.17131999e-01 
358 1212.19 8.28976925e+00 2.16617481e-01 
357 1213.78 8.45234898e+00 1.93170602e-01 
356 1215.37 8.37321928e+00 1.63260081e-01 
355 1216.95 8.42420405e+00 1.22470354e-01 
354 1218.53 8.39860758e+00 1.32741571e-01 
353 1220.11 8.47308572e+00 1.17882999e-01 
352 1221.69 8.42708504e+00 1.12338834e-01 
351 1223.27 8.45434703e+00 1.07993415e-01 
350 1224.84 8.46027777e+00 1.13130870e-01 
349 1226.42 8.50765511e+00 1.22109955e-01 
348 1227.99 8.46771565e+00 1.22678529e-01 
347 1229.56 8.57693924e+00 1.08190296e-01 
346 1231.13 8.49376743e+00 8.74073320e-02 
345 1232.70 8.53195160e+00 7.03534048e-02 
344 1234.27 8.48895188e+00 7.35031759e-02 
343 1235.84 8.49722302e+00 7.59035330e-02 
342 1237.40 8.46625954e+00 9.00858435e-02 
341 1238.96 8.47884313e+00 9.74066967e-02 
340 1240.52 8.31911683e+00 7.62745864e-02 
339 1242.08 8.44277977e+00 8.02065907e-02 
338 1243.64 8.40104554e+00 6.77831174e-02 
337 1245.20 8.42784995e+00 3.62400977e-02 
336 1246.75 8.39435746e+00 1.47004109e-02 
335 1248.31 8.47725601e+00 2.33580302e-02 
334 1249.86 8.40920633e+00 2.73059939e-02 
333 1251.41 8.45937911e+00 4.92285249e-02 
332 1252.96 8.38146133e+00 5.34418546e-02 
331 1254.51 8.41187909e+00 7.45718019e-02 
330 1256.06 8.32849389e+00 8.77215905e-02 
329 1257.61 8.27837439e+00 7.67436394e-02 
328 1259.15 8.16646182e+00 9.64222929e-02 
327 1260.69 8.12862346e+00 1.06603658e-01 
326 1262.23 8.03316912e+00 1.45599581e-01 
325 1263.77 8.01740951e+00 1.42121641e-01 
324 1265.31 7.83032993e+00 1.97545706e-01 
323 1266.85 7.83799184e+00 2.06663183e-01 
322 1268.39 7.87057733e+00 1.79924286e-01 
321 1269.92 8.00081591e+00 1.69064864e-01 
320 1271.46 8.18746141e+00 1.30800871e-01 
319 1272.99 8.24065645e+00 1.33606492e-01 
318 1274.52 8.22738365e+00 1.30074776e-01 
317 1276.05 8.28681301e+00 1.42933408e-01 
316 1277.58 8.12983147e+00 1.26515953e-01 
315 1279.10 7.97615806e+00 9.02336808e-02 
314 1280.63 7.93430537e+00 9.42934009e-02 
313 1282.15 7.93262243e+00 1.18061115e-01 
312 1283.68 8.04655040e+00 1.59923451e-01 
311 1285.20 8.23597003e+00 1.96132594e-01 
310 1286.72 8.19336556e+00 2.08339976e-01 
309 1288.24 8.19690599e+00 1.95242617e-01 
308 1289.75 8.10844190e+00 1.90349813e-01 
307 1291.27 8.11387423e+00 1.80178770e-01 
306 1292.78 8.13058283e+00 1.70466915e-01 
305 1294.30 8.14481681e+00 1.54982116e-01 
304 1295.81 8.06924524e+00 1.57194677e-01 
303 1297.32 8.04010536e+00 1.66136363e-01 
302 1298.83 7.98241571e+00 1.77413892e-01 
301 1300.34 7.89697382e+00 2.22992337e-01 
300 1301.85 7.82099766e+00 2.49290851e-01 
299 1303.35 7.74413449e+00 2.91106891e-01 
298 1304.86 7.63545734e+00 3.25353594e-01 
297 1306.36 7.61625075e+00 3.29684973e-01 
296 1307.86 7.58020909e+00 3.29484692e-01 
295 1309.36 7.51501622e+00 3.53356067e-01 
294 1310.86 7.40316348e+00 4.27925777e-01 
293 1312.36 7.31665464e+00 4.36778986e-01 
292 1313.86 7.22708186e+00 4.51901520e-01 
291 1315.36 7.21872326e+00 4.92728238e-01 
290 1316.85 7.15687016e+00 5.58605175e-01 
289 1318.34 7.11728467e+00 5.93803781e-01 
288 1319.84 7.06544033e+00 7.17256874e-01 
287 1321.33 7.10875755e+00 7.14085453e-01 
286 1322.82 7.09329437e+00 6.81364874e-01 
285 1324.30 7.05749170e+00 7.35268683e-01 
284 1325.79 6.85986889e+00 7.99331993e-01 
283 1327.28 6.67133337e+00 9.72042859e-01 
282 1328.76 6.41069329e+00 1.20461941e+00 
281 1330.25 6.32080896e+00 1.32685642e+00 
280 1331.73 6.26350439e+00 1.32907754e+00 
279 1333.21 6.26711630e+00 1.26720197e+00 
278 1334.69 6.27596824e+00 1.15623513e+00 
277 1336.17 6.23178631e+00 1.05162209e+00 
276 1337.65 6.11131954e+00 1.09002878e+00 
275 1339.12 6.04701915e+00 1.04529349e+00 
274 1340.60 5.84877508e+00 1.20271429e+00 
273 1342.07 5.62109019e+00 1.38579094e+00 
272 1343.55 5.32110806e+00 1.53038368e+00 
271 1345.02 4.69175388e+00 1.80755574e+00 
270 1346.49 4.34094494e+00 1.92537198e+00 
269 1347.96 3.88765622e+00 2.16332987e+00 
268 1349.43 3.42947212e+00 2.45531585e+00 
267 1350.89 2.99511151e+00 2.51004343e+00 
266 1352.36 2.28457716e+00 3.00144174e+00 
265 1353.82 2.06665613e+00 2.78687425e+00 
264 1355.29 1.55047391e+00 2.54489460e+00 
263 1356.75 1.61265393e+00 2.58522229e+00 
262 1358.21 1.21612896e+00 2.18766805e+00 
261 1359.67 8.50746897e-01 1.50900452e+00 
260 1361.13 7.51035435e-01 1.34971545e+00 
259 1362.59 8.01631019e-01 1.46160513e+00 
258 1364.04 1.00496407e+00 1.83946725e+00 
257 1365.50 1.06624023e+00 1.90573016e+00 
256 1366.95 7.96954865e-01 1.25995311e+00 
255 1368.41 7.88718233e-01 1.53242218e+00 
254 1369.86 9.34637474e-01 1.75626782e+00 
253 1371.31 1.20272235e+00 2.03334629e+00 
252 1372.76 1.09929404e+00 1.62601397e+00 
251 1374.21 1.47733938e+00 2.32130325e+00 
250 1375.65 1.43226776e+00 2.22803429e+00 
249 1377.10 1.33286902e+00 2.09278005e+00 
248 1378.55 1.00658859e+00 1.49736158e+00 
247 1379.99 8.53834511e-01 1.33158219e+00 
246 1381.43 5.34685041e-01 7.30047584e-01 
245 1382.87 6.91679445e-01 1.26406878e+00 
244 1384.32 7.47993711e-01 1.32644173e+00 
243 1385.75 1.04564708e+00 1.53300726e+00 
242 1387.19 1.34716165e+00 1.80131142e+00 
241 1388.63 1.33883169e+00 1.97580707e+00 
240 1390.07 1.57323452e+00 1.87486351e+00 
239 1391.50 1.49453200e+00 1.80871897e+00 
238 1392.94 9.60411087e-01 1.22351421e+00 
237 1394.37 1.19692452e+00 1.55867666e+00 
236 1395.80 1.29369408e+00 1.78629183e+00 
235 1397.23 1.31034138e+00 1.41216681e+00 
234 1398.66 1.20535687e+00 1.46891244e+00 
233 1400.09 1.55673525e+00 1.54460449e+00 
232 1401.52 1.36847936e+00 1.48790955e+00 
231 1402.94 1.57630150e+00 1.62322836e+00 
230 1404.37 1.48660988e+00 2.11475711e+00 
229 1405.79 1.63740781e+00 1.57690086e+00 
228 1407.22 1.46978726e+00 2.11245234e+00 
227 1408.64 1.82988406e+00 1.69799915e+00 
226 1410.06 1.76067693e+00 2.33508247e+00 
225 1411.48 1.99929883e+00 1.74409516e+00 
224 1412.90 1.92455903e+00 2.39847199e+00 
223 1414.32 2.30679837e+00 1.81742570e+00 
222 1415.73 2.29962169e+00 1.63348251e+00 
221 1417.15 2.35398934e+00 1.66362115e+00 
220 1418.56 2.49215448e+00 1.67057249e+00 
219 1419.98 2.44542003e+00 1.56423200e+00 
218 1421.39 2.60921111e+00 1.48074826e+00 
217 1422.80 2.85195212e+00 1.39753487e+00 
216 1424.21 2.88433372e+00 1.47877397e+00 
215 1425.62 2.85410392e+00 1.56456183e+00 
214 1427.03 2.96301725e+00 1.52913190e+00 
213 1428.44 2.81215464e+00 1.44594470e+00 
212 1429.84 2.67129915e+00 1.39083422e+00 
211 1431.25 2.72679226e+00 1.26503605e+00 
210 1432.65 2.72174602e+00 1.29890879e+00 
209 1434.06 2.76665785e+00 1.42317379e+00 
208 1435.46 2.88587353e+00 1.38966450e+00 
207 1436.86 2.93684753e+00 1.30670895e+00 
206 1438.26 2.97349524e+00 1.31189807e+00 
205 1439.66 3.07016047e+00 1.20177613e+00 
204 1441.05 3.23851367e+00 1.25529801e+00 
203 1442.45 3.19062900e+00 1.19058528e+00 
202 1443.85 3.20044000e+00 1.22155745e+00 
201 1445.24 3.30106325e+00 1.20006074e+00 
200 1446.64 3.30462322e+00 1.25045787e+00 
199 1448.03 3.20073293e+00 1.29529905e+00 
198 1449.42 3.30822673e+00 1.24188156e+00 
197 1450.81 3.34007783e+00 1.17883092e+00 
196 1452.20 3.41340545e+00 1.12536226e+00 
195 1453.59 3.73183902e+00 9.64477265e-01 
194 1454.97 3.97636015e+00 8.34371409e-01 
193 1456.36 4.00639954e+00 7.67763148e-01 
192 1457.75 4.04701605e+00 7.77651657e-01 
191 1459.13 3.97310068e+00 7.89808072e-01 
190 1460.51 3.88605050e+00 8.60633149e-01 
189 1461.90 3.71698725e+00 8.68084624e-01 
188 1463.28 3.61528145e+00 9.48285102e-01 
187 1464.66 3.48012244e+00 9.92675961e-01 
186 1466.04 3.48649649e+00 1.04354058e+00 
185 1467.41 3.32263939e+00 1.16692679e+00 
184 1468.79 3.26027173e+00 1.21922293e+00 
183 1470.17 3.20842736e+00 1.19833521e+00 
182 1471.54 3.24040379e+00 1.22625718e+00 
181 1472.92 3.36105370e+00 1.11439098e+00 
180 1474.29 3.52485177e+00 1.05265652e+00 
179 1475.66 3.54919502e+00 1.00776517e+00 
178 1477.03 3.46529353e+00 1.07174886e+00 
177 1478.40 3.40965178e+00 1.07254131e+00 
176 1479.77 3.48748076e+00 9.77449798e-01 
175 1481.14 3.51134407e+00 8.95463691e-01 
174 1482.51 3.62894929e+00 8.29238361e-01 
173 1483.87 3.62989461e+00 8.07225539e-01 
172 1485.24 3.62650185e+00 8.17616527e-01 
171 1486.60 3.60884350e+00 7.90696980e-01 
170 1487.96 3.68630562e+00 7.06233428e-01 
169 1489.32 3.72519515e+00 6.00887208e-01 
168 1490.69 3.91135591e+00 5.44685332e-01 
167 1492.04 3.93546022e+00 5.13783966e-01 
166 1493.40 3.99188269e+00 5.26344520e-01 
165 1494.76 3.99199538e+00 4.83248135e-01 
164 1496.12 4.05095805e+00 4.30547755e-01 
163 1497.47 4.04475976e+00 3.58280649e-01 
162 1498.83 4.13683917e+00 3.12326467e-01 
161 1500.18 3.98160313e+00 3.08293068e-01 
160 1501.53 3.90519393e+00 3.29921244e-01 
159 1502.89 3.80404142e+00 3.31426996e-01 
158 1504.24 3.83320701e+00 3.04200045e-01 
157 1505.59 3.86314922e+00 3.00558899e-01 
156 1506.93 4.01191445e+00 2.25162430e-01 
155 1508.28 4.05311593e+00 1.77015386e-01 
154 1509.63 4.09330577e+00 1.74413831e-01 
153 1510.97 4.05449564e+00 1.42879742e-01 
152 1512.32 4.12847155e+00 1.26036425e-01 
151 1513.66 4.04084788e+00 1.16478450e-01 
150 1515.00 4.07879907e+00 1.20247333e-01 
149 1516.34 4.04675140e+00 1.17586030e-01 
148 1517.69 4.08497106e+00 1.04923412e-01 
147 1519.02 4.03217218e+00 8.20907840e-02 
146 1520.36 4.04871969e+00 6.53225702e-02 
145 1521.70 4.00304711e+00 6.12292200e-02 
144 1523.04 4.07752368e+00 7.17087730e-02 
143 1524.37 4.03302826e+00 6.63806316e-02 
142 1525.71 4.07601430e+00 7.48606352e-02 
141 1527.04 4.00291459e+00 8.25701647e-02 
140 1528.37 4.02137030e+00 8.33760932e-02 
139 1529.70 3.94570409e+00 8.29776439e-02 
138 1531.03 3.98005343e+00 9.24072390e-02 
137 1532.36 3.91798164e+00 9.00145236e-02 
136 1533.69 3.94905767e+00 9.56808560e-02 
135 1535.02 3.86018661e+00 9.03428798e-02 
134 1536.34 3.89350554e+00 9.03744651e-02 
133 1537.67 3.81150477e+00 6.85961362e-02 
132 1538.99 3.83848692e+00 6.71172897e-02 
131 1540.31 3.78133073e+00 5.86996381e-02 
130 1541.64 3.82906820e+00 5.98930787e-02 
129 1542.96 3.79585013e+00 5.72978535e-02 
128 1544.28 3.84654490e+00 7.43618493e-02 
127 1545.60 3.78191279e+00 8.57104536e-02 
126 1546.91 3.82333635e+00 9.10392459e-02 
125 1548.23 3.72574863e+00 8.10224481e-02 
124 1549.55 3.75563557e+00 7.86791857e-02 
123 1550.86 3.66809274e+00 6.46436364e-02 
122 1552.18 3.68451402e+00 6.83930252e-02 
121 1553.49 3.62380149e+00 8.47464457e-02 
120 1554.80 3.67348736e+00 8.68261078e-02 
119 1556.11 3.59631757e+00 6.92374993e-02 
118 1557.42 3.63697955e+00 6.82540117e-02 
117 1558.73 3.56095300e+00 5.66040330e-02 
116 1560.04 3.57266359e+00 4.73357268e-02 
115 1561.34 3.48893265e+00 3.30653503e-02 
114 1562.65 3.53766184e+00 4.00361962e-02 
113 1563.95 3.45773604e+00 3.37781123e-02 
112 1565.26 3.51210479e+00 3.96437588e-02 
111 1566.56 3.39619355e+00 3.27590880e-02 
110 1567.86 3.40520259e+00 4.40965393e-02 
109 1569.16 3.30987563e+00 6.11323710e-02 
108 1570.46 3.32126042e+00 7.81458921e-02 
107 1571.76 3.23115609e+00 8.36160447e-02 
106 1573.05 3.22921664e+00 9.68757627e-02 
105 1574.35 3.11589396e+00 8.01972321e-02 
104 1575.64 3.14216969e+00 7.86542331e-02 
103 1576.94 3.09968860e+00 6.73392382e-02 
102 1578.23 3.17106132e+00 7.09165701e-02 
101 1579.52 3.12483292e+00 5.04338845e-02 
100 1580.81 3.18460123e+00 4.62376980e-02 
99 1582.10 3.11580715e+00 3.05888444e-02 
98 1583.39 3.17269579e+00 3.42606658e-02 
97 1584.68 3.10004949e+00 3.71478230e-02 
96 1585.97 3.09551431e+00 4.34673440e-02 
95 1587.25 3.00367518e+00 3.67715433e-02 
94 1588.54 3.02367216e+00 2.74224283e-02 
93 1589.82 2.97173626e+00 2.12139663e-02 
92 1591.10 3.06894430e+00 1.87741725e-02 
91 1592.38 3.02988777e+00 3.30112475e-02 
90 1593.66 3.09108435e+00 3.64059325e-02 
89 1594.94 3.01365749e+00 2.47815422e-02 
88 1596.22 3.04435479e+00 1.36939385e-02 
87 1597.50 2.95485597e+00 1.29518929e-02 
86 1598.77 2.97762153e+00 2.52939737e-02 
85 1600.05 2.88363407e+00 2.45436598e-02 
84 1601.32 2.89986549e+00 2.78882400e-02 
83 1602.59 2.80833195e+00 1.89745150e-02 
82 1603.86 2.86188610e+00 1.68487134e-02 
81 1605.13 2.74611229e+00 2.53008559e-02 
80 1606.40 2.79800764e+00 2.68966053e-02 
79 1607.67 2.70274180e+00 3.66349557e-02 
78 1608.94 2.75181963e+00 2.47207697e-02 
77 1610.20 2.70788768e+00 1.35900600e-02 
76 1611.47 2.77794000e+00 8.05499829e-03 
75 1612.73 2.72221870e+00 2.02649688e-02 
74 1614.00 2.78093539e+00 4.20398094e-02 
73 1615.26 2.70879068e+00 4.99495746e-02 
72 1616.52 2.73271211e+00 6.35471854e-02 
71 1617.78 2.63014475e+00 5.96424292e-02 
70 1619.03 2.65768666e+00 6.69754479e-02 
69 1620.29 2.59105875e+00 5.93105988e-02 
68 1621.55 2.64674299e+00 5.82392547e-02 
67 1622.80 2.57270787e+00 4.68255445e-02 
66 1624.06 2.64597666e+00 3.61788934e-02 
65 1625.31 2.54352812e+00 3.95329597e-02 
64 1626.56 2.60017893e+00 4.03679957e-02 
63 1627.81 2.50446869e+00 2.95898679e-02 
62 1629.06 2.51697299e+00 3.21140190e-02 
61 1630.31 2.42355611e+00 2.41114045e-02 
60 1631.56 2.44362536e+00 2.68995488e-02 
59 1632.80 2.34788055e+00 2.95127866e-02 
58 1634.05 2.37578152e+00 2.73690531e-02 
