% C0 (TOA Count Rate, /ms) for 4STAR VIS spectrometer (1044 channels) derived from 20160112starsun.mat and recorded on 2016-01-13 12:09:12.
% Data outside 2.0x the STD of 501 nm Langley residuals were screened out.
Pix Wavelength C0 C0err
0 173.18 -1.00000000e+00 -1.00000000e+00 
1 173.97 2.86465242e+02 8.59395725e+00 
2 174.77 4.26829891e+02 1.28048967e+01 
3 175.56 4.91638164e+02 1.47491449e+01 
4 176.36 7.07919050e+04 2.12375715e+03 
5 177.15 8.49212117e+04 2.54763635e+03 
6 177.94 9.88588622e+04 2.96576587e+03 
7 178.74 1.08609857e+05 3.25829572e+03 
8 179.53 1.25398220e+05 3.76194659e+03 
9 180.33 1.43379638e+05 4.30138914e+03 
10 181.12 1.67986972e+05 5.03960915e+03 
11 181.92 1.92713978e+05 5.78141935e+03 
12 182.71 2.24382927e+05 6.73148781e+03 
13 183.51 2.58233154e+05 7.74699461e+03 
14 184.30 3.05828523e+05 9.17485569e+03 
15 185.10 3.54130345e+05 1.06239104e+04 
16 185.89 4.24131143e+05 1.27239343e+04 
17 186.69 5.00405358e+05 1.50121607e+04 
18 187.49 5.94833938e+05 1.78450182e+04 
19 188.28 7.16020674e+05 2.14806202e+04 
20 189.08 8.62049298e+05 2.58614789e+04 
21 189.88 1.05413186e+06 3.16239559e+04 
22 190.67 1.28736124e+06 3.86208371e+04 
23 191.47 1.56547536e+06 4.69642607e+04 
24 192.27 1.95842349e+06 5.87527046e+04 
25 193.07 2.45210839e+06 7.35632517e+04 
26 193.86 3.06189942e+06 9.18569825e+04 
27 194.66 3.92083139e+06 1.17624942e+05 
28 195.46 4.95702120e+06 1.48710636e+05 
29 196.26 6.42214575e+06 1.92664373e+05 
30 197.05 7.91288433e+06 2.37386530e+05 
31 197.85 1.06057311e+07 3.18171932e+05 
32 198.65 1.42201401e+07 4.26604202e+05 
33 199.45 1.95252023e+07 5.85756070e+05 
34 200.25 2.66333389e+07 7.99000167e+05 
35 201.05 3.51754777e+07 1.05526433e+06 
36 201.85 4.97486920e+07 1.49246076e+06 
37 202.64 6.99010029e+07 2.09703009e+06 
38 203.44 9.88989713e+07 2.96696914e+06 
39 204.24 1.09419888e+08 3.28259665e+06 
40 205.04 1.62622141e+08 4.87866424e+06 
41 205.84 2.12813321e+08 6.38439962e+06 
42 206.64 2.35349698e+08 7.06049095e+06 
43 207.44 2.73499704e+08 8.20499111e+06 
44 208.24 2.77234266e+08 8.31702798e+06 
45 209.04 2.96782620e+08 8.90347859e+06 
46 209.84 4.72805764e+08 1.41841729e+07 
47 210.64 3.30253409e+08 9.90760227e+06 
48 211.44 2.01272114e+08 6.03816343e+06 
49 212.24 1.24954753e+08 3.74864259e+06 
50 213.05 7.69154727e+07 2.30746418e+06 
51 213.85 4.74677702e+07 1.42403311e+06 
52 214.65 2.88781505e+07 8.66344516e+05 
53 215.45 1.80364619e+07 5.41093858e+05 
54 216.25 1.10973210e+07 3.32919630e+05 
55 217.05 6.84164535e+06 2.05249361e+05 
56 217.85 4.21577450e+06 1.26473235e+05 
57 218.65 2.60446209e+06 7.81338627e+04 
58 219.46 1.60696081e+06 4.82088242e+04 
59 220.26 9.72544823e+05 2.91763447e+04 
60 221.06 6.05617381e+05 1.81685214e+04 
61 221.86 3.74183365e+05 1.12255010e+04 
62 222.66 2.33249819e+05 6.99749456e+03 
63 223.47 1.42546871e+05 4.27640612e+03 
64 224.27 8.79271027e+04 2.63781308e+03 
65 225.07 5.43088832e+04 1.62926650e+03 
66 225.87 3.34095047e+04 1.00228514e+03 
67 226.68 2.08753353e+04 6.26260058e+02 
68 227.48 1.31393500e+04 3.94180499e+02 
69 228.28 8.46144497e+03 2.53843349e+02 
70 229.09 5.84998582e+03 1.75499575e+02 
71 229.89 4.75602895e+03 1.42680869e+02 
72 230.69 4.72015182e+03 1.41604555e+02 
73 231.49 5.85586875e+03 1.75676062e+02 
74 232.30 8.54764163e+03 2.56429249e+02 
75 233.10 1.39260426e+04 4.17781278e+02 
76 233.91 2.39779380e+04 7.19338140e+02 
77 234.71 4.20009315e+04 1.26002795e+03 
78 235.51 7.49102754e+04 2.24730826e+03 
79 236.32 1.29989720e+05 3.89969159e+03 
80 237.12 2.32140618e+05 6.96421855e+03 
81 237.92 4.15018863e+05 1.24505659e+04 
82 238.73 7.46523074e+05 2.23956922e+04 
83 239.53 1.34131392e+06 4.02394176e+04 
84 240.34 2.39663399e+06 7.18990196e+04 
85 241.14 4.13001554e+06 1.23900466e+05 
86 241.94 7.03766851e+06 2.11130055e+05 
87 242.75 1.18824399e+07 3.56473197e+05 
88 243.55 1.96856891e+07 5.90570674e+05 
89 244.36 3.15411293e+07 9.46233878e+05 
90 245.16 5.03512052e+07 1.51053616e+06 
91 245.97 7.83474392e+07 2.35042317e+06 
92 246.77 1.12973387e+08 3.38920161e+06 
93 247.58 1.66994206e+08 5.00982618e+06 
94 248.38 2.37330732e+08 7.11992195e+06 
95 249.19 3.29962754e+08 9.89888262e+06 
96 249.99 4.23926722e+08 1.27178017e+07 
97 250.80 5.18297888e+08 1.55489366e+07 
98 251.60 6.16537527e+08 1.84961258e+07 
99 252.41 7.32969511e+08 2.19890853e+07 
100 253.21 8.02102485e+08 2.40630745e+07 
101 254.02 7.31971778e+08 2.19591533e+07 
102 254.83 6.71642995e+08 2.01492899e+07 
103 255.63 7.02505657e+08 2.10751697e+07 
104 256.44 8.23121938e+08 2.46936581e+07 
105 257.24 7.13678268e+08 2.14103481e+07 
106 258.05 6.39415766e+08 1.91824730e+07 
107 258.85 5.40266261e+08 1.62079878e+07 
108 259.66 4.14795748e+08 1.24438724e+07 
109 260.46 3.04533408e+08 9.13600223e+06 
110 261.27 2.21809758e+08 6.65429275e+06 
111 262.08 1.50169037e+08 4.50507112e+06 
112 262.88 1.00171154e+08 3.00513463e+06 
113 263.69 6.53163000e+07 1.95948900e+06 
114 264.50 4.23883654e+07 1.27165096e+06 
115 265.30 2.70346781e+07 8.11040344e+05 
116 266.11 1.63354262e+07 4.90062787e+05 
117 266.91 9.29322167e+06 2.78796650e+05 
118 267.72 5.26909295e+06 1.58072788e+05 
119 268.53 2.83021552e+06 8.49064655e+04 
120 269.33 1.54889062e+06 4.64667186e+04 
121 270.14 8.98142221e+05 2.69442666e+04 
122 270.95 4.97025947e+05 1.49107784e+04 
123 271.75 2.72886853e+05 8.18660559e+03 
124 272.56 1.48906552e+05 4.46719656e+03 
125 273.37 7.66387758e+04 2.29916327e+03 
126 274.17 4.04857012e+04 1.21457104e+03 
127 274.98 2.16252654e+04 6.48757963e+02 
128 275.79 1.21475706e+04 3.64427117e+02 
129 276.59 6.88707660e+03 2.06612298e+02 
130 277.40 3.99847001e+03 1.19954100e+02 
131 278.21 2.27083921e+03 6.81251763e+01 
132 279.01 1.32364397e+03 3.97093190e+01 
133 279.82 7.62321915e+02 2.28696574e+01 
134 280.63 4.53240756e+02 1.35972227e+01 
135 281.44 2.65431672e+02 7.96295016e+00 
136 282.24 1.63428212e+02 4.90284635e+00 
137 283.05 1.05338668e+02 3.16016004e+00 
138 283.86 7.02032238e+01 2.10609671e+00 
139 284.66 4.65163500e+01 1.39549050e+00 
140 285.47 3.17436135e+01 9.52308404e-01 
141 286.28 2.25732016e+01 6.77196049e-01 
142 287.09 1.60611316e+01 4.81833947e-01 
143 287.89 1.19820039e+01 3.59460118e-01 
144 288.70 8.59243344e+00 2.57773003e-01 
145 289.51 6.71952867e+00 2.01585860e-01 
146 290.32 5.20461803e+00 1.56138541e-01 
147 291.12 4.19722514e+00 1.25916754e-01 
148 291.93 3.30112251e+00 9.90336752e-02 
149 292.74 2.75129295e+00 8.25387885e-02 
150 293.55 2.32055993e+00 6.96167979e-02 
151 294.35 1.95405624e+00 5.86216873e-02 
152 295.16 1.68417713e+00 5.05253139e-02 
153 295.97 1.49417288e+00 4.48251865e-02 
154 296.78 1.30112334e+00 3.90337003e-02 
155 297.58 1.15903000e+00 3.47708999e-02 
156 298.39 1.03807301e+00 3.11421903e-02 
157 299.20 9.57070037e-01 2.87121011e-02 
158 300.01 8.74787517e-01 2.62436255e-02 
159 300.81 8.18942779e-01 2.45682834e-02 
160 301.62 7.61847733e-01 2.28554320e-02 
161 302.43 7.23158346e-01 2.16947504e-02 
162 303.24 6.88567458e-01 2.06570238e-02 
163 304.05 6.61185437e-01 1.98355631e-02 
164 304.85 6.28485575e-01 1.88545673e-02 
165 305.66 6.19703261e-01 1.85910978e-02 
166 306.47 5.96115213e-01 1.78834564e-02 
167 307.28 5.70204726e-01 1.71061418e-02 
168 308.08 5.69028228e-01 1.70708468e-02 
169 308.89 5.50796837e-01 1.65239051e-02 
170 309.70 5.45074707e-01 1.63522412e-02 
171 310.51 5.43883817e-01 1.63165145e-02 
172 311.32 5.37404438e-01 1.61221331e-02 
173 312.12 5.28589043e-01 1.58576713e-02 
174 312.93 5.27295781e-01 1.58188734e-02 
175 313.74 5.17462563e-01 1.55238769e-02 
176 314.55 5.27353918e-01 1.58206176e-02 
177 315.36 5.19395196e-01 1.55818559e-02 
178 316.16 5.29858791e-01 1.58957637e-02 
179 316.97 5.29628362e-01 1.58888509e-02 
180 317.78 5.37930310e-01 1.61379093e-02 
181 318.59 5.42477844e-01 1.62743353e-02 
182 319.39 5.50096422e-01 1.65028926e-02 
183 320.20 5.56317236e-01 1.66895171e-02 
184 321.01 5.60705752e-01 1.68211726e-02 
185 321.82 5.76548488e-01 1.72964546e-02 
186 322.63 5.90761267e-01 1.77228380e-02 
187 323.43 6.04591460e-01 1.81377438e-02 
188 324.24 6.22709202e-01 1.86812761e-02 
189 325.05 6.35166528e-01 1.90549958e-02 
190 325.86 6.61979745e-01 1.98593924e-02 
191 326.67 6.75404648e-01 2.02621394e-02 
192 327.48 6.92534375e-01 2.07760312e-02 
193 328.28 7.18082064e-01 2.15424619e-02 
194 329.09 7.41931757e-01 2.22579527e-02 
195 329.90 7.76719454e-01 2.33015836e-02 
196 330.71 8.09517522e-01 2.42855257e-02 
197 331.51 8.66181497e-01 2.59854449e-02 
198 332.32 9.44432247e-01 2.83329674e-02 
199 333.13 1.11604395e+00 3.34813184e-02 
200 333.94 1.39780586e+00 4.19341758e-02 
201 334.75 1.90173213e+00 5.70519640e-02 
202 335.56 2.67062397e+00 8.01187191e-02 
203 336.36 3.80339995e+00 1.14101999e-01 
204 337.17 5.65210388e+00 1.69563117e-01 
205 337.98 8.45276475e+00 2.53582942e-01 
206 338.79 1.18596035e+01 3.55788104e-01 
207 339.59 1.58821294e+01 4.76463882e-01 
208 340.40 1.95735372e+01 5.87206116e-01 
209 341.21 2.28312243e+01 6.84936729e-01 
210 342.02 2.64885092e+01 7.94655277e-01 
211 342.83 2.99904625e+01 8.99713875e-01 
212 343.64 3.11332873e+01 9.33998620e-01 
213 344.44 3.23383588e+01 9.70150764e-01 
214 345.25 3.61830393e+01 1.08549118e+00 
215 346.06 4.00589364e+01 1.20176809e+00 
216 346.87 4.25468864e+01 1.27640659e+00 
217 347.67 4.43451560e+01 1.33035468e+00 
218 348.48 4.61085983e+01 1.38325795e+00 
219 349.29 4.89371545e+01 1.46811463e+00 
220 350.10 5.38280537e+01 1.61484161e+00 
221 350.91 5.75464795e+01 1.72639439e+00 
222 351.71 5.79477642e+01 1.73843293e+00 
223 352.52 5.89313440e+01 1.76794032e+00 
224 353.33 6.42045694e+01 1.92613708e+00 
225 354.14 7.11733267e+01 2.13519980e+00 
226 354.94 7.45598133e+01 2.23679440e+00 
227 355.75 7.36656615e+01 2.20996985e+00 
228 356.56 6.96008859e+01 2.08802658e+00 
229 357.37 6.54291164e+01 1.96287349e+00 
230 358.18 6.44132751e+01 1.93239825e+00 
231 358.98 7.18381671e+01 2.15514501e+00 
232 359.79 8.34508195e+01 2.50352459e+00 
233 360.60 8.57474722e+01 2.57242417e+00 
234 361.41 8.43572171e+01 2.53071651e+00 
235 362.21 8.86798225e+01 2.66039468e+00 
236 363.02 9.42091789e+01 2.82627537e+00 
237 363.83 9.76116846e+01 2.92835054e+00 
238 364.64 1.02260313e+02 3.06780940e+00 
239 365.44 1.11361673e+02 3.34085019e+00 
240 366.25 1.19860720e+02 3.59582159e+00 
241 367.06 1.21397608e+02 3.64192823e+00 
242 367.87 1.19619312e+02 3.58857935e+00 
243 368.67 1.21116752e+02 3.63350255e+00 
244 369.48 1.26442343e+02 3.79327028e+00 
245 370.29 1.28193911e+02 3.84581732e+00 
246 371.10 1.26894806e+02 3.80684419e+00 
247 371.90 1.23926389e+02 3.71779168e+00 
248 372.71 1.17362182e+02 3.52086547e+00 
249 373.52 1.10798202e+02 3.32394605e+00 
250 374.33 1.09851715e+02 3.29555145e+00 
251 375.13 1.17190060e+02 3.51570179e+00 
252 375.94 1.27900018e+02 3.83700055e+00 
253 376.75 1.39315574e+02 4.17946723e+00 
254 377.55 1.52472186e+02 4.57416558e+00 
255 378.36 1.57147620e+02 4.71442859e+00 
256 379.17 1.49842511e+02 4.49527534e+00 
257 379.98 1.45917732e+02 4.37753196e+00 
258 380.78 1.45880862e+02 4.37642587e+00 
259 381.59 1.34284105e+02 4.02852316e+00 
260 382.40 1.14755147e+02 3.44265442e+00 
261 383.21 1.04761536e+02 3.14284608e+00 
262 384.01 1.12511914e+02 3.37535741e+00 
263 384.82 1.27522912e+02 3.82568735e+00 
264 385.63 1.34751539e+02 4.04254618e+00 
265 386.43 1.36204841e+02 4.08614522e+00 
266 387.24 1.37316209e+02 4.11948628e+00 
267 388.05 1.39572888e+02 4.18718665e+00 
268 388.85 1.47693307e+02 4.43079920e+00 
269 389.66 1.61481767e+02 4.84445301e+00 
270 390.47 1.73192673e+02 5.19578019e+00 
271 391.27 1.75112176e+02 5.25336528e+00 
272 392.08 1.58101561e+02 4.74304684e+00 
273 392.89 1.29456396e+02 3.88369187e+00 
274 393.69 1.20832472e+02 3.62497416e+00 
275 394.50 1.42724617e+02 4.28173852e+00 
276 395.31 1.61460262e+02 4.84380787e+00 
277 396.11 1.52985274e+02 4.58955823e+00 
278 396.92 1.44391487e+02 4.33174460e+00 
279 397.73 1.68086669e+02 5.04260007e+00 
280 398.53 2.08126493e+02 6.24379479e+00 
281 399.34 2.35122659e+02 7.05367978e+00 
282 400.15 2.48466306e+02 7.45398919e+00 
283 400.95 2.57493313e+02 7.72479939e+00 
284 401.76 2.64757168e+02 7.94271505e+00 
285 402.57 2.67392971e+02 8.02178914e+00 
286 403.37 2.66127300e+02 7.98381900e+00 
287 404.18 2.64826616e+02 7.94479849e+00 
288 404.98 2.63579884e+02 7.90739652e+00 
289 405.79 2.62258326e+02 7.86774977e+00 
290 406.60 2.62860121e+02 7.88580362e+00 
291 407.40 2.68880988e+02 8.06642964e+00 
292 408.21 2.78793805e+02 8.36381416e+00 
293 409.02 2.83343562e+02 8.50030687e+00 
294 409.82 2.80649456e+02 8.41948367e+00 
295 410.63 2.83138207e+02 8.49414622e+00 
296 411.44 2.94633973e+02 8.83901920e+00 
297 412.24 3.03443410e+02 9.10330231e+00 
298 413.05 3.04979791e+02 9.14939373e+00 
299 413.85 3.04962088e+02 9.14886265e+00 
300 414.66 3.05802571e+02 9.17407714e+00 
301 415.46 3.07290134e+02 9.21870402e+00 
302 416.27 3.07959654e+02 9.23878961e+00 
303 417.08 3.04847302e+02 9.14541907e+00 
304 417.88 3.00022139e+02 9.00066418e+00 
305 418.69 2.97938118e+02 8.93814353e+00 
306 419.49 2.99130347e+02 8.97391042e+00 
307 420.30 3.03330470e+02 9.09991409e+00 
308 421.11 3.07302144e+02 9.21906431e+00 
309 421.91 3.05951989e+02 9.17855967e+00 
310 422.72 3.01417022e+02 9.04251065e+00 
311 423.52 3.00918918e+02 9.02756754e+00 
312 424.33 3.04218912e+02 9.12656736e+00 
313 425.13 3.06448723e+02 9.19346169e+00 
314 425.94 3.06333884e+02 9.19001653e+00 
315 426.74 3.05322829e+02 9.15968488e+00 
316 427.55 3.03937806e+02 9.11813419e+00 
317 428.35 2.99345357e+02 8.98036071e+00 
318 429.16 2.87337527e+02 8.62012580e+00 
319 429.96 2.73972577e+02 8.21917730e+00 
320 430.77 2.78163254e+02 8.34489763e+00 
321 431.58 3.04122094e+02 9.12366281e+00 
322 432.38 3.33042635e+02 9.99127906e+00 
323 433.19 3.47254602e+02 1.04176381e+01 
324 433.99 3.53404168e+02 1.06021250e+01 
325 434.80 3.64971380e+02 1.09491414e+01 
326 435.60 3.82342707e+02 1.14702812e+01 
327 436.41 3.94636735e+02 1.18391021e+01 
328 437.21 3.94320509e+02 1.18296153e+01 
329 438.02 3.88069334e+02 1.16420800e+01 
330 438.82 3.87818066e+02 1.16345420e+01 
331 439.63 3.97083944e+02 1.19125183e+01 
332 440.43 4.12468111e+02 1.23740433e+01 
333 441.24 4.28584148e+02 1.28575244e+01 
334 442.04 4.43071987e+02 1.32921596e+01 
335 442.84 4.53194513e+02 1.35958354e+01 
336 443.65 4.58705889e+02 1.37611767e+01 
337 444.45 4.60288657e+02 1.38086597e+01 
338 445.26 4.59386224e+02 1.37815867e+01 
339 446.06 4.62001461e+02 1.38600438e+01 
340 446.87 4.71213541e+02 1.41364062e+01 
341 447.67 4.83998610e+02 1.45199583e+01 
342 448.48 4.94395583e+02 1.48318675e+01 
343 449.28 5.03706216e+02 1.51111865e+01 
344 450.09 5.13835183e+02 1.54150555e+01 
345 450.89 5.20042890e+02 1.56012867e+01 
346 451.69 5.16187767e+02 1.54856330e+01 
347 452.50 5.06499858e+02 1.51949958e+01 
348 453.30 5.01009176e+02 1.50302753e+01 
349 454.11 5.03055041e+02 1.50916512e+01 
350 454.91 5.10771040e+02 1.53231312e+01 
351 455.72 5.19406811e+02 1.55822043e+01 
352 456.52 5.26372275e+02 1.57911683e+01 
353 457.32 5.29499823e+02 1.58849947e+01 
354 458.13 5.28418149e+02 1.58525445e+01 
355 458.93 5.27262172e+02 1.58178652e+01 
356 459.74 5.30110191e+02 1.59033057e+01 
357 460.54 5.36894423e+02 1.61068327e+01 
358 461.34 5.44708521e+02 1.63412556e+01 
359 462.15 5.50194535e+02 1.65058360e+01 
360 462.95 5.50799784e+02 1.65239935e+01 
361 463.76 5.47616904e+02 1.64285071e+01 
362 464.56 5.43905153e+02 1.63171546e+01 
363 465.36 5.40966396e+02 1.62289919e+01 
364 466.17 5.39431343e+02 1.61829403e+01 
365 466.97 5.39948417e+02 1.61984525e+01 
366 467.77 5.42480950e+02 1.62744285e+01 
367 468.58 5.45700813e+02 1.63710244e+01 
368 469.38 5.46938962e+02 1.64081689e+01 
369 470.18 5.47891460e+02 1.64367438e+01 
370 470.99 5.53038427e+02 1.65911528e+01 
371 471.79 5.61089970e+02 1.68326991e+01 
372 472.59 5.68649244e+02 1.70594773e+01 
373 473.40 5.73968411e+02 1.72190523e+01 
374 474.20 5.77167182e+02 1.73150155e+01 
375 475.00 5.79230184e+02 1.73769055e+01 
376 475.81 5.80910134e+02 1.74273040e+01 
377 476.61 5.83965724e+02 1.75189717e+01 
378 477.41 5.89468925e+02 1.76840677e+01 
379 478.21 5.95377722e+02 1.78613317e+01 
380 479.02 5.99645460e+02 1.79893638e+01 
381 479.82 6.02114099e+02 1.80634230e+01 
382 480.62 6.04679142e+02 1.81403743e+01 
383 481.43 6.06016032e+02 1.81804810e+01 
384 482.23 6.04969902e+02 1.81490971e+01 
385 483.03 6.00530737e+02 1.80159221e+01 
386 483.84 5.90602333e+02 1.77180700e+01 
387 484.64 5.71973450e+02 1.71592035e+01 
388 485.44 5.49354499e+02 1.64806350e+01 
389 486.24 5.35517965e+02 1.60655390e+01 
390 487.05 5.36870680e+02 1.61061204e+01 
391 487.85 5.51331675e+02 1.65399503e+01 
392 488.65 5.69724255e+02 1.70917277e+01 
393 489.45 5.82581396e+02 1.74774419e+01 
394 490.26 5.87266506e+02 1.76179952e+01 
395 491.06 5.85712249e+02 1.75713675e+01 
396 491.86 5.81810532e+02 1.74543160e+01 
397 492.66 5.81017998e+02 1.74305400e+01 
398 493.46 5.86024167e+02 1.75807250e+01 
399 494.27 5.92675145e+02 1.77802544e+01 
400 495.07 5.96773700e+02 1.79032110e+01 
401 495.87 5.98685103e+02 1.79605531e+01 
402 496.67 5.96712983e+02 1.79013895e+01 
403 497.48 5.92396578e+02 1.77718973e+01 
404 498.28 5.87753316e+02 1.76325995e+01 
405 499.08 5.82112783e+02 1.74633835e+01 
406 499.88 5.75981473e+02 1.72794442e+01 
407 500.68 5.70810494e+02 1.71243148e+01 
408 501.48 5.68055635e+02 1.70416691e+01 
409 502.29 5.69491952e+02 1.70847585e+01 
410 503.09 5.73302145e+02 1.71990644e+01 
411 503.89 5.78527939e+02 1.73558382e+01 
412 504.69 5.84521994e+02 1.75356598e+01 
413 505.49 5.89246623e+02 1.76773987e+01 
414 506.29 5.90706075e+02 1.77211822e+01 
415 507.09 5.88502910e+02 1.76550873e+01 
416 507.90 5.85412032e+02 1.75623610e+01 
417 508.70 5.83990514e+02 1.75197154e+01 
418 509.50 5.84489782e+02 1.75346934e+01 
419 510.30 5.85742171e+02 1.75722651e+01 
420 511.10 5.84958372e+02 1.75487512e+01 
421 511.90 5.81473972e+02 1.74442192e+01 
422 512.70 5.75595732e+02 1.72678720e+01 
423 513.51 5.68860403e+02 1.70658121e+01 
424 514.31 5.63136054e+02 1.68940816e+01 
425 515.11 5.54813336e+02 1.66444001e+01 
426 515.91 5.41094498e+02 1.62328349e+01 
427 516.71 5.26751492e+02 1.58025448e+01 
428 517.51 5.17933550e+02 1.55380065e+01 
429 518.31 5.20238161e+02 1.56071448e+01 
430 519.11 5.32147501e+02 1.59644250e+01 
431 519.91 5.45118010e+02 1.63535403e+01 
432 520.71 5.54997898e+02 1.66499369e+01 
433 521.51 5.59408723e+02 1.67822617e+01 
434 522.32 5.61661886e+02 1.68498566e+01 
435 523.12 5.65472150e+02 1.69641645e+01 
436 523.92 5.69377367e+02 1.70813210e+01 
437 524.72 5.69554566e+02 1.70866370e+01 
438 525.52 5.62674912e+02 1.68802473e+01 
439 526.32 5.53363844e+02 1.66009153e+01 
440 527.12 5.50861561e+02 1.65258468e+01 
441 527.92 5.57376768e+02 1.67213030e+01 
442 528.72 5.69453131e+02 1.70835939e+01 
443 529.52 5.80638578e+02 1.74191574e+01 
444 530.32 5.85854226e+02 1.75756268e+01 
445 531.12 5.84212078e+02 1.75263623e+01 
446 531.92 5.79135464e+02 1.73740639e+01 
447 532.72 5.74244714e+02 1.72273414e+01 
448 533.52 5.73306088e+02 1.71991827e+01 
449 534.32 5.77297113e+02 1.73189134e+01 
450 535.12 5.82012425e+02 1.74603728e+01 
451 535.92 5.83286897e+02 1.74986069e+01 
452 536.72 5.82099369e+02 1.74629811e+01 
453 537.52 5.79555352e+02 1.73866606e+01 
454 538.32 5.75770656e+02 1.72731197e+01 
455 539.12 5.70971743e+02 1.71291523e+01 
456 539.92 5.66371675e+02 1.69911502e+01 
457 540.72 5.64268994e+02 1.69280698e+01 
458 541.52 5.65595955e+02 1.69678787e+01 
459 542.32 5.69837127e+02 1.70951138e+01 
460 543.12 5.74266773e+02 1.72280032e+01 
461 543.92 5.77467499e+02 1.73240250e+01 
462 544.72 5.79544692e+02 1.73863408e+01 
463 545.52 5.79626489e+02 1.73887947e+01 
464 546.31 5.77402316e+02 1.73220695e+01 
465 547.12 5.74517841e+02 1.72355352e+01 
466 547.91 5.72877530e+02 1.71863259e+01 
467 548.71 5.72541938e+02 1.71762581e+01 
468 549.51 5.72840350e+02 1.71852105e+01 
469 550.31 5.72519106e+02 1.71755732e+01 
470 551.11 5.71641819e+02 1.71492546e+01 
471 551.91 5.70939706e+02 1.71281912e+01 
472 552.71 5.70626255e+02 1.71187876e+01 
