% C0 (TOA Count Rate, /ms) for 4STAR VIS spectrometer (1044 channels) derived from (SEE Original files for sources) and recorded on 2017-06-12 14:08:10.
% Langley at MLO and airborne Data outside 2.0x the STD of 501 nm Langley residuals were screened out. 
% Including high Altitude rate spectra, matched to splined stratospheric AOD measured at MLO.
% Averages of c0 from multiple days including: , infl-ig-ht, MLO -av-g-, infl-ig-ht. See the list of files below
% 20160825_VIS_C0_refined_Langley_ORACLES_transit2.dat
% 20161115_VIS_C0_refined_Langley_Nov2016part1.5incl1115_good_mean.dat
% 20160924_VIS_C0_refined_Langley_airborne_ORACLES_v1.dat
Pix Wavelength C0 C0err
0 173.18 -1.00000000e+00 0.00000000e+00 
1 173.98 7.99449581e+04 1.38185996e+05 
2 174.77 2.17961734e+05 3.77209655e+05 
3 175.56 3.26578034e+05 5.64571752e+05 
4 176.36 1.84989980e+07 3.20078108e+07 
5 177.15 2.44526823e+07 4.23125398e+07 
6 177.94 2.91841438e+07 5.05000568e+07 
7 178.74 3.48007130e+07 6.02204189e+07 
8 179.53 4.29337029e+07 7.43007545e+07 
9 180.33 5.20749974e+07 9.01255364e+07 
10 181.12 6.16504576e+07 1.06699153e+08 
11 181.92 7.48699903e+07 1.29581853e+08 
12 182.71 9.49300121e+07 1.64308245e+08 
13 183.51 1.08079525e+08 1.87065548e+08 
14 184.30 1.35201852e+08 2.34016021e+08 
15 185.10 1.59092253e+08 2.75364927e+08 
16 185.89 1.99494067e+08 3.45301462e+08 
17 186.69 2.31109602e+08 4.00017863e+08 
18 187.49 3.03569742e+08 5.25485277e+08 
19 188.28 4.10901451e+08 7.11318261e+08 
20 189.08 5.76790094e+08 9.98555089e+08 
21 189.88 8.59666165e+08 1.48840555e+09 
22 190.67 1.11011078e+09 1.92201275e+09 
23 191.47 1.58479978e+09 2.74402124e+09 
24 192.27 2.28188975e+09 3.95123076e+09 
25 193.07 3.28475741e+09 5.68792628e+09 
26 193.86 4.41738291e+09 7.64928878e+09 
27 194.66 6.30317762e+09 1.09150598e+10 
28 195.46 8.22564825e+09 1.42441798e+10 
29 196.26 1.14901991e+10 1.98975424e+10 
30 197.05 1.64816814e+10 2.85416185e+10 
31 197.85 2.42975325e+10 4.20769662e+10 
32 198.65 3.49133506e+10 6.04613381e+10 
33 199.45 5.33577473e+10 9.24036853e+10 
34 200.25 7.98547320e+10 1.38291086e+11 
35 201.05 1.16540745e+11 2.01828661e+11 
36 201.85 1.79219022e+11 3.10386601e+11 
37 202.65 2.94845742e+11 5.10660079e+11 
38 203.44 4.88003825e+11 8.45211172e+11 
39 204.24 7.08568302e+11 1.22724742e+12 
40 205.04 1.12619165e+12 1.95060105e+12 
41 205.84 2.16945563e+12 3.75759342e+12 
42 206.64 3.00627636e+12 5.20701356e+12 
43 207.44 3.58987704e+12 6.21784266e+12 
44 208.24 5.82322528e+12 1.00861173e+13 
45 209.04 9.45823487e+12 1.63821400e+13 
46 209.84 2.39659184e+13 4.15101861e+13 
47 210.64 2.12598743e+13 3.68231808e+13 
48 211.44 2.42593358e+13 4.20184010e+13 
49 212.24 2.96225577e+13 5.13077742e+13 
50 213.04 3.10427694e+13 5.37676533e+13 
51 213.85 2.44740478e+13 4.23902938e+13 
52 214.65 1.00145521e+13 1.73457128e+13 
53 215.45 4.04265004e+12 7.00207508e+12 
54 216.25 1.66807733e+12 2.88919455e+12 
55 217.05 6.71110638e+11 1.16239763e+12 
56 217.85 2.75127794e+11 4.76535256e+11 
57 218.65 1.11959686e+11 1.93919822e+11 
58 219.46 4.52721040e+10 7.84135540e+10 
59 220.26 1.85853724e+10 3.21907881e+10 
60 221.06 7.70465391e+09 1.33448375e+10 
61 221.86 3.13063363e+09 5.42240647e+09 
62 222.66 1.29442866e+09 2.24200903e+09 
63 223.47 5.21088723e+08 9.02547148e+08 
64 224.27 2.09732608e+08 3.63264067e+08 
65 225.07 8.91700762e+07 1.54444689e+08 
66 225.87 3.57065673e+07 6.18438983e+07 
67 226.68 1.48208224e+07 2.56692424e+07 
68 227.48 6.29710358e+06 1.09060946e+07 
69 228.28 2.85863776e+06 4.95070878e+06 
70 229.08 1.44582095e+06 2.50377336e+06 
71 229.89 9.93518714e+05 1.72043622e+06 
72 230.69 9.76022256e+05 1.69013425e+06 
73 231.49 1.44208351e+06 2.49731157e+06 
74 232.30 2.96429986e+06 5.13370996e+06 
75 233.10 7.40156296e+06 1.28190106e+07 
76 233.90 2.01089957e+07 3.48285116e+07 
77 234.71 5.54466409e+07 9.60344119e+07 
78 235.51 1.64326925e+08 2.84619556e+08 
79 236.32 4.72822616e+08 8.18948179e+08 
80 237.12 1.37692233e+09 2.38489230e+09 
81 237.92 4.03949052e+09 6.99659185e+09 
82 238.73 1.20953210e+10 2.09496934e+10 
83 239.53 3.47880642e+10 6.02546682e+10 
84 240.34 1.05345022e+11 1.82462890e+11 
85 241.14 2.99040524e+11 5.17953321e+11 
86 241.94 7.95664479e+11 1.37813121e+12 
87 242.75 2.17107329e+12 3.76040911e+12 
88 243.55 5.47739188e+12 9.48712082e+12 
89 244.36 1.32282418e+13 2.29119867e+13 
90 245.16 3.05118746e+13 5.28481167e+13 
91 245.97 5.82983082e+13 1.00975631e+14 
92 246.77 6.26460830e+13 1.08506198e+14 
93 247.58 5.53158624e+13 9.58098831e+13 
94 248.38 5.33244781e+13 9.23607042e+13 
95 249.19 5.48449100e+13 9.49941690e+13 
96 249.99 3.97280498e+13 6.88109987e+13 
97 250.80 3.69500309e+13 6.39993285e+13 
98 251.60 4.31053753e+13 7.46606976e+13 
99 252.41 4.53548458e+13 7.85568944e+13 
100 253.21 3.89346562e+13 6.74367996e+13 
101 254.02 3.16225882e+13 5.47719260e+13 
102 254.82 2.74463558e+13 4.75384791e+13 
103 255.63 2.86565032e+13 4.96345160e+13 
104 256.44 3.94661599e+13 6.83573909e+13 
105 257.24 4.70198155e+13 8.14407064e+13 
106 258.05 4.57497154e+13 7.92408288e+13 
107 258.85 3.95034183e+13 6.84219251e+13 
108 259.66 4.49513521e+13 7.78580237e+13 
109 260.46 5.78171446e+13 1.00142230e+14 
110 261.27 6.99747911e+13 1.21199892e+14 
111 262.08 4.64807807e+13 8.05070728e+13 
112 262.88 6.29334353e+13 1.09003907e+14 
113 263.69 5.16328372e+13 8.94306969e+13 
114 264.49 2.30537051e+13 3.99301882e+13 
115 265.30 9.84220023e+12 1.70471906e+13 
116 266.11 3.78038660e+12 6.54782149e+12 
117 266.91 1.35672563e+12 2.34991762e+12 
118 267.72 4.57169772e+11 7.91841198e+11 
119 268.53 1.48303682e+11 2.56869463e+11 
120 269.33 4.82172181e+10 8.35146410e+10 
121 270.14 1.69653132e+10 2.93847647e+10 
122 270.95 5.75731506e+09 9.97194914e+09 
123 271.75 1.87514612e+09 3.24784021e+09 
124 272.56 5.82365614e+08 1.00868161e+09 
125 273.37 1.77674790e+08 3.07738529e+08 
126 274.17 5.32088902e+07 9.21585089e+07 
127 274.98 1.69076166e+07 2.92835722e+07 
128 275.79 5.79175491e+06 1.00307987e+07 
129 276.59 2.01331872e+06 3.48663672e+06 
130 277.40 7.03338624e+05 1.21786322e+06 
131 278.21 2.52090741e+05 4.36402610e+05 
132 279.01 9.13608003e+04 1.58088605e+05 
133 279.82 3.43535791e+04 5.94016086e+04 
134 280.63 1.26961107e+04 2.19222489e+04 
135 281.43 4.91603684e+03 8.46688803e+03 
136 282.24 2.09864102e+03 3.60191881e+03 
137 283.05 9.34839237e+02 1.59483358e+03 
138 283.86 4.42542120e+02 7.48540197e+02 
139 284.66 2.12356038e+02 3.54400464e+02 
140 285.47 1.04762474e+02 1.71297669e+02 
141 286.28 5.96066829e+01 9.52143939e+01 
142 287.09 3.44683530e+01 5.32911353e+01 
143 287.89 1.98592052e+01 2.93704007e+01 
144 288.70 1.25699490e+01 1.76509293e+01 
145 289.51 8.39739321e+00 1.11024694e+01 
146 290.32 5.78361201e+00 7.03834982e+00 
147 291.12 4.24000969e+00 4.77295093e+00 
148 291.93 3.11057283e+00 3.17156326e+00 
149 292.74 2.41404080e+00 2.26176276e+00 
150 293.55 1.97543476e+00 1.63292425e+00 
151 294.35 1.63291883e+00 1.20087944e+00 
152 295.16 1.39848487e+00 9.21117747e-01 
153 295.97 1.22253644e+00 6.95984970e-01 
154 296.78 1.07057404e+00 5.74417865e-01 
155 297.58 9.62907518e-01 4.42805618e-01 
156 298.39 8.87464294e-01 3.57617377e-01 
157 299.20 8.01410844e-01 3.32092775e-01 
158 300.01 7.85360015e-01 2.06660780e-01 
159 300.81 7.07468851e-01 2.18139681e-01 
160 301.62 6.75011334e-01 1.87947768e-01 
161 302.43 6.59716987e-01 1.53457344e-01 
162 303.24 6.51588031e-01 1.11526735e-01 
163 304.04 6.23583173e-01 1.09383491e-01 
164 304.85 6.29208828e-01 6.53763850e-02 
165 305.66 5.93438904e-01 6.88297839e-02 
166 306.47 6.03984502e-01 4.32414088e-02 
167 307.28 5.61979479e-01 7.05230019e-02 
168 308.08 5.68581325e-01 4.62622857e-02 
169 308.89 5.69729961e-01 3.37185105e-02 
170 309.70 5.49450362e-01 4.63768804e-02 
171 310.51 5.63937653e-01 3.23986376e-02 
172 311.32 5.45109633e-01 3.03661476e-02 
173 312.12 5.59340610e-01 3.28320991e-02 
174 312.93 5.61588933e-01 2.29053319e-02 
175 313.74 5.65426992e-01 2.55546008e-02 
176 314.55 5.54029368e-01 1.85914314e-02 
177 315.36 5.54041012e-01 1.77888563e-02 
178 316.16 5.80825851e-01 4.12865851e-02 
179 316.97 5.62143040e-01 1.86331088e-02 
180 317.78 5.89255560e-01 2.88937533e-02 
181 318.59 5.86879018e-01 1.67404449e-02 
182 319.40 6.11711273e-01 3.36019361e-02 
183 320.20 6.18661902e-01 3.26047886e-02 
184 321.01 6.30959459e-01 3.52737194e-02 
185 321.82 6.43956736e-01 2.47315235e-02 
186 322.63 6.58607621e-01 2.05935101e-02 
187 323.43 7.05287910e-01 7.56212847e-02 
188 324.24 7.19663535e-01 6.99360236e-02 
189 325.05 7.20037523e-01 3.69842585e-02 
190 325.86 7.52606912e-01 7.00764963e-02 
191 326.67 7.75247446e-01 5.17749756e-02 
192 327.48 7.93636480e-01 4.00178015e-02 
193 328.28 8.31783519e-01 4.88116766e-02 
194 329.09 8.66350966e-01 6.46235042e-02 
195 329.90 8.83845744e-01 4.57618119e-02 
196 330.71 9.48639892e-01 6.35767159e-02 
197 331.52 1.05237880e+00 1.10670538e-01 
198 332.32 1.16091492e+00 9.29843329e-02 
199 333.13 1.41032390e+00 1.23447463e-01 
200 333.94 1.89885739e+00 2.30608161e-01 
201 334.75 2.64227681e+00 3.31847145e-01 
202 335.55 3.73322314e+00 4.84755379e-01 
203 336.36 5.18722583e+00 6.15488690e-01 
204 337.17 7.48054808e+00 8.05527447e-01 
205 337.98 1.07946593e+01 1.06505520e+00 
206 338.79 1.46742962e+01 1.18550709e+00 
207 339.60 1.90462165e+01 1.32360034e+00 
208 340.40 2.29444942e+01 1.36901378e+00 
209 341.21 2.61826351e+01 1.38260758e+00 
210 342.02 3.00012377e+01 1.46603086e+00 
211 342.83 3.33882172e+01 1.42090152e+00 
212 343.63 3.43441094e+01 1.41538745e+00 
213 344.44 3.56043552e+01 1.49765008e+00 
214 345.25 3.95388393e+01 1.56528910e+00 
215 346.06 4.32600921e+01 1.46200590e+00 
216 346.87 4.57380606e+01 1.39727449e+00 
217 347.67 4.74616750e+01 1.37405412e+00 
218 348.48 4.91328958e+01 1.38898593e+00 
219 349.29 5.20007203e+01 1.39075933e+00 
220 350.10 5.71327040e+01 1.51927140e+00 
221 350.90 6.07148430e+01 1.53820431e+00 
222 351.71 6.08586124e+01 1.37460267e+00 
223 352.52 6.18979045e+01 1.37173559e+00 
224 353.33 6.73629649e+01 1.57139879e+00 
225 354.14 7.41940144e+01 1.50403745e+00 
226 354.94 7.74367352e+01 1.53094673e+00 
227 355.75 7.61127188e+01 1.43954867e+00 
228 356.56 7.17105905e+01 1.37148280e+00 
229 357.37 6.72782180e+01 1.24019589e+00 
230 358.18 6.62135297e+01 1.21698777e+00 
231 358.98 7.41022340e+01 1.45311003e+00 
232 359.79 8.56221595e+01 1.53588083e+00 
233 360.60 8.73166044e+01 1.30421668e+00 
234 361.41 8.58756068e+01 1.27613530e+00 
235 362.21 9.04255271e+01 1.45884780e+00 
236 363.02 9.58765517e+01 1.63227934e+00 
237 363.83 9.89763126e+01 1.46181414e+00 
238 364.64 1.03727598e+02 1.59295024e+00 
239 365.44 1.12981801e+02 1.79883659e+00 
240 366.25 1.21096560e+02 1.74373116e+00 
241 367.06 1.22288012e+02 1.76904945e+00 
242 367.87 1.20270352e+02 1.59734822e+00 
243 368.67 1.21793323e+02 1.76386458e+00 
244 369.48 1.26954135e+02 1.89688150e+00 
245 370.29 1.28238901e+02 1.85142666e+00 
246 371.10 1.26745186e+02 1.83224121e+00 
247 371.90 1.23559818e+02 1.87634828e+00 
248 372.71 1.16631653e+02 1.50974322e+00 
249 373.52 1.10213773e+02 1.70547614e+00 
250 374.33 1.09338689e+02 1.68266203e+00 
251 375.13 1.16685671e+02 1.81846690e+00 
252 375.94 1.27180447e+02 2.13349050e+00 
253 376.75 1.38279693e+02 2.19369478e+00 
254 377.56 1.51257874e+02 2.52672127e+00 
255 378.36 1.55034535e+02 2.28296653e+00 
256 379.17 1.47305425e+02 1.95741561e+00 
257 379.98 1.43745304e+02 2.15891920e+00 
258 380.78 1.43428234e+02 2.16803753e+00 
259 381.59 1.31211233e+02 1.72834690e+00 
260 382.40 1.11812045e+02 1.32707346e+00 
261 383.20 1.02500004e+02 1.39529990e+00 
262 384.01 1.10655110e+02 1.73441397e+00 
263 384.82 1.25233225e+02 2.15968881e+00 
264 385.63 1.31553444e+02 2.05073740e+00 
265 386.43 1.32655810e+02 1.95678119e+00 
266 387.24 1.33529546e+02 1.95586626e+00 
267 388.05 1.35584430e+02 2.04387245e+00 
268 388.85 1.43520894e+02 2.20956553e+00 
269 389.66 1.56740209e+02 2.46432315e+00 
270 390.47 1.67424766e+02 2.48222198e+00 
271 391.27 1.68372973e+02 2.42241584e+00 
272 392.08 1.50635699e+02 1.74145145e+00 
273 392.89 1.22535569e+02 1.09721544e+00 
274 393.69 1.15097355e+02 1.21309786e+00 
275 394.50 1.36715656e+02 2.24116280e+00 
276 395.31 1.53354304e+02 2.33657741e+00 
277 396.11 1.43612881e+02 1.44367891e+00 
278 396.92 1.35679134e+02 1.26056730e+00 
279 397.73 1.59113648e+02 2.09622960e+00 
280 398.53 1.96411311e+02 2.80336138e+00 
281 399.34 2.20398207e+02 2.55667156e+00 
282 400.15 2.32101576e+02 2.49539702e+00 
283 400.95 2.40059057e+02 2.52508560e+00 
284 401.76 2.46485388e+02 2.68584052e+00 
285 402.57 2.48381581e+02 2.43223583e+00 
286 403.37 2.47062977e+02 2.45268118e+00 
287 404.18 2.45666958e+02 2.11921826e+00 
288 404.99 2.44637590e+02 2.18221411e+00 
289 405.79 2.43535935e+02 2.19195646e+00 
290 406.60 2.44229812e+02 2.06200547e+00 
291 407.40 2.50096684e+02 2.19201688e+00 
292 408.21 2.59426255e+02 2.55334112e+00 
293 409.02 2.63275385e+02 2.74133574e+00 
294 409.82 2.60174059e+02 2.23239956e+00 
295 410.63 2.62848661e+02 2.43117342e+00 
296 411.43 2.73792642e+02 2.89845836e+00 
297 412.24 2.81200345e+02 2.73697759e+00 
298 413.05 2.81906622e+02 2.67343105e+00 
299 413.85 2.81309847e+02 2.73099684e+00 
300 414.66 2.81129893e+02 2.43726854e+00 
301 415.46 2.81758312e+02 2.54233891e+00 
302 416.27 2.81404815e+02 2.53676454e+00 
303 417.08 2.77478408e+02 2.38472474e+00 
304 417.88 2.72381052e+02 2.60316949e+00 
305 418.69 2.69569293e+02 2.50833248e+00 
306 419.49 2.69760111e+02 2.58630044e+00 
307 420.30 2.72855398e+02 2.84303807e+00 
308 421.11 2.75453409e+02 2.82675248e+00 
309 421.91 2.73016625e+02 2.33830987e+00 
310 422.72 2.68350025e+02 2.17686884e+00 
311 423.52 2.67847772e+02 2.36154882e+00 
312 424.33 2.70560454e+02 2.17836352e+00 
313 425.13 2.72562833e+02 2.14035289e+00 
314 425.94 2.72941523e+02 2.38439637e+00 
315 426.74 2.72708760e+02 2.47285725e+00 
316 427.55 2.72327903e+02 2.39461538e+00 
317 428.36 2.69246883e+02 2.55200106e+00 
318 429.16 2.59301556e+02 2.54509918e+00 
319 429.96 2.48527826e+02 2.29013640e+00 
320 430.77 2.55246173e+02 2.63918314e+00 
321 431.58 2.82065034e+02 3.28744020e+00 
322 432.38 3.10777312e+02 4.02578152e+00 
323 433.19 3.25620387e+02 4.31330123e+00 
324 433.99 3.33600822e+02 4.09441774e+00 
325 434.80 3.47455563e+02 4.28707502e+00 
326 435.60 3.66726990e+02 4.61365645e+00 
327 436.41 3.80523427e+02 4.88043622e+00 
328 437.21 3.81796465e+02 4.79797621e+00 
329 438.02 3.77830097e+02 4.77312330e+00 
330 438.82 3.80215900e+02 4.91856069e+00 
331 439.63 3.91956798e+02 5.46076174e+00 
332 440.43 4.08763205e+02 5.16343222e+00 
333 441.24 4.26797226e+02 5.74770963e+00 
334 442.04 4.43019640e+02 6.16759767e+00 
335 442.85 4.54793502e+02 6.62112698e+00 
336 443.65 4.61591269e+02 6.53101867e+00 
337 444.45 4.64218874e+02 6.36895319e+00 
338 445.26 4.64172118e+02 6.07052582e+00 
339 446.06 4.68077733e+02 6.03443592e+00 
340 446.87 4.79320260e+02 6.85114876e+00 
341 447.67 4.93276885e+02 6.82431089e+00 
342 448.48 5.04947490e+02 7.27256770e+00 
343 449.28 5.14981849e+02 6.71848844e+00 
344 450.09 5.26394985e+02 7.12485251e+00 
345 450.89 5.33216313e+02 7.42497540e+00 
346 451.70 5.29119401e+02 7.13565794e+00 
347 452.50 5.19038656e+02 6.34336116e+00 
348 453.30 5.14053110e+02 6.25612845e+00 
349 454.11 5.16694427e+02 6.26827848e+00 
350 454.91 5.25129754e+02 6.69826740e+00 
351 455.72 5.34368652e+02 7.00214499e+00 
352 456.52 5.41914214e+02 7.00310234e+00 
353 457.32 5.45387127e+02 6.87528210e+00 
354 458.13 5.44727488e+02 6.93345066e+00 
355 458.93 5.43738079e+02 6.64367927e+00 
356 459.74 5.47415073e+02 7.16244742e+00 
357 460.54 5.54372725e+02 6.79686419e+00 
358 461.34 5.62731229e+02 7.16173013e+00 
359 462.15 5.68420075e+02 7.44658942e+00 
360 462.95 5.68685728e+02 7.30103573e+00 
361 463.76 5.64871423e+02 6.73606527e+00 
362 464.56 5.61370819e+02 6.93418568e+00 
363 465.36 5.58940066e+02 7.14337543e+00 
364 466.17 5.58031437e+02 7.41805994e+00 
365 466.97 5.58941749e+02 7.31284527e+00 
366 467.77 5.61503915e+02 6.89286566e+00 
367 468.58 5.64970980e+02 7.29129235e+00 
368 469.38 5.65438465e+02 6.68723049e+00 
369 470.18 5.66300469e+02 6.66751942e+00 
370 470.99 5.71483559e+02 6.21203250e+00 
371 471.79 5.79792810e+02 6.13788924e+00 
372 472.59 5.87714812e+02 6.47508993e+00 
373 473.40 5.93093497e+02 6.38234719e+00 
374 474.20 5.96497731e+02 6.35680380e+00 
375 475.00 5.98565504e+02 6.00981875e+00 
376 475.81 6.00687081e+02 6.17586774e+00 
377 476.61 6.04257200e+02 6.25662797e+00 
378 477.41 6.10250887e+02 6.59558977e+00 
379 478.21 6.15706288e+02 6.07212936e+00 
380 479.02 6.20374876e+02 7.11973420e+00 
381 479.82 6.22606454e+02 7.12601604e+00 
382 480.62 6.24738997e+02 6.45608001e+00 
383 481.43 6.26189108e+02 6.83771063e+00 
384 482.23 6.25574641e+02 7.76132795e+00 
385 483.03 6.20728446e+02 7.19680265e+00 
386 483.84 6.10639709e+02 7.13352138e+00 
387 484.64 5.91329072e+02 6.90231675e+00 
388 485.44 5.67623929e+02 5.99944625e+00 
389 486.24 5.53982428e+02 5.91030639e+00 
390 487.04 5.56401107e+02 6.29679113e+00 
391 487.85 5.72304878e+02 7.42580041e+00 
392 488.65 5.90177795e+02 6.01965813e+00 
393 489.45 6.03583103e+02 6.85807331e+00 
394 490.26 6.08002534e+02 6.96423466e+00 
395 491.06 6.05582030e+02 6.11895087e+00 
396 491.86 6.01813172e+02 6.37993900e+00 
397 492.66 6.01691854e+02 6.87209324e+00 
398 493.46 6.07214280e+02 6.90370381e+00 
399 494.27 6.14147667e+02 7.04330476e+00 
400 495.07 6.18207797e+02 7.15081458e+00 
401 495.87 6.19380166e+02 6.30023556e+00 
402 496.67 6.17336018e+02 6.79514506e+00 
403 497.48 6.13162756e+02 7.47622680e+00 
404 498.28 6.08006023e+02 6.85439718e+00 
405 499.08 6.02182046e+02 6.99557379e+00 
406 499.88 5.95509887e+02 6.76321150e+00 
407 500.68 5.90376353e+02 7.21004299e+00 
408 501.48 5.87009137e+02 6.13609763e+00 
409 502.29 5.89076303e+02 6.71608625e+00 
410 503.09 5.93408549e+02 7.13292528e+00 
411 503.89 5.98320784e+02 6.15616067e+00 
412 504.69 6.04828992e+02 6.37603565e+00 
413 505.49 6.10124174e+02 7.01464339e+00 
414 506.29 6.11483241e+02 7.25331338e+00 
415 507.09 6.08986129e+02 7.25580664e+00 
416 507.90 6.05439685e+02 6.71749154e+00 
417 508.70 6.04166137e+02 7.06175297e+00 
418 509.50 6.04469613e+02 6.87376276e+00 
419 510.30 6.05408577e+02 6.44361624e+00 
420 511.10 6.05023576e+02 7.38901224e+00 
421 511.90 6.00617158e+02 6.42829701e+00 
422 512.71 5.94635753e+02 6.74780347e+00 
423 513.51 5.87665489e+02 6.60258611e+00 
424 514.31 5.82240617e+02 7.22071444e+00 
425 515.11 5.73295813e+02 6.91322208e+00 
426 515.91 5.58347186e+02 5.92648242e+00 
427 516.71 5.43677568e+02 5.81193573e+00 
428 517.51 5.35148596e+02 5.88582694e+00 
429 518.31 5.38262401e+02 6.05272642e+00 
430 519.11 5.51168342e+02 6.41766338e+00 
431 519.91 5.64371966e+02 5.91263853e+00 
432 520.71 5.74799425e+02 6.27765857e+00 
433 521.52 5.79697117e+02 6.93850910e+00 
434 522.32 5.81948339e+02 6.73731221e+00 
435 523.12 5.85841693e+02 6.48282083e+00 
436 523.92 5.89809852e+02 6.25756752e+00 
437 524.72 5.90738669e+02 7.81039091e+00 
438 525.52 5.82579158e+02 6.88130017e+00 
439 526.32 5.72537685e+02 6.44607880e+00 
440 527.12 5.69780376e+02 5.68696921e+00 
441 527.92 5.77429186e+02 6.57930072e+00 
442 528.72 5.90443170e+02 7.24067077e+00 
443 529.52 6.01557630e+02 6.62054626e+00 
444 530.32 6.07223846e+02 7.22518469e+00 
445 531.12 6.05293913e+02 7.21742509e+00 
446 531.92 5.99597409e+02 6.94767371e+00 
447 532.72 5.94173648e+02 6.59191617e+00 
448 533.52 5.92979410e+02 6.23101488e+00 
449 534.32 5.97629882e+02 6.79401677e+00 
450 535.12 6.02680290e+02 7.13878481e+00 
451 535.92 6.03779994e+02 7.03883789e+00 
452 536.72 6.02756637e+02 7.46992548e+00 
453 537.52 5.99243104e+02 6.32026160e+00 
454 538.32 5.95883284e+02 7.43035936e+00 
455 539.12 5.90250534e+02 6.41718246e+00 
456 539.92 5.85904810e+02 6.76114117e+00 
457 540.72 5.84193317e+02 6.94257612e+00 
458 541.52 5.85792878e+02 7.07571006e+00 
459 542.32 5.90551949e+02 7.66914715e+00 
460 543.12 5.94493638e+02 6.79570666e+00 
461 543.92 5.97947581e+02 7.27285869e+00 
