% C0 (TOA Count Rate, /ms) for 4STAR NIR spectrometer (512 channels) derived from 20160110starsun.mat and recorded on 2016-01-10 19:42:08.
% Data outside 2.0x the STD of 501 nm Langley residuals were screened out.
Pix Wavelength C0 C0err
511 949.79 5.29068049e+00 1.58720415e-01 
510 949.79 5.44836892e+00 1.63451068e-01 
509 951.68 5.84238673e+00 1.75271602e-01 
508 953.57 5.89982796e+00 1.76994839e-01 
507 955.46 6.38025236e+00 1.91407571e-01 
506 957.34 6.49025707e+00 1.94707712e-01 
505 959.22 6.96922896e+00 2.09076869e-01 
504 961.10 7.04977604e+00 2.11493281e-01 
503 962.98 7.48888838e+00 2.24666651e-01 
502 964.85 7.48084649e+00 2.24425395e-01 
501 966.72 7.99191349e+00 2.39757405e-01 
500 968.59 8.02931696e+00 2.40879509e-01 
499 970.45 8.43080736e+00 2.52924221e-01 
498 972.32 8.39257504e+00 2.51777251e-01 
497 974.18 8.73328079e+00 2.61998424e-01 
496 976.04 8.65128455e+00 2.59538536e-01 
495 977.89 8.98227921e+00 2.69468376e-01 
494 979.74 8.90074066e+00 2.67022220e-01 
493 981.59 9.17107302e+00 2.75132190e-01 
492 983.44 9.04497719e+00 2.71349316e-01 
491 985.29 9.27812194e+00 2.78343658e-01 
490 987.13 9.06980779e+00 2.72094234e-01 
489 988.97 9.31150116e+00 2.79345035e-01 
488 990.81 9.10885293e+00 2.73265588e-01 
487 992.65 9.26882440e+00 2.78064732e-01 
486 994.48 9.09196097e+00 2.72758829e-01 
485 996.31 9.23680542e+00 2.77104162e-01 
484 998.14 8.99415313e+00 2.69824594e-01 
483 999.97 9.14469534e+00 2.74340860e-01 
482 1001.79 8.87209023e+00 2.66162707e-01 
481 1003.62 8.94884209e+00 2.68465263e-01 
480 1005.44 8.74630652e+00 2.62389196e-01 
479 1007.25 8.99904175e+00 2.69971253e-01 
478 1009.07 8.81367683e+00 2.64410305e-01 
477 1010.88 8.97641149e+00 2.69292345e-01 
476 1012.69 8.71272344e+00 2.61381703e-01 
475 1014.50 8.82799858e+00 2.64839957e-01 
474 1016.31 8.61749995e+00 2.58524999e-01 
473 1018.11 8.75518270e+00 2.62655481e-01 
472 1019.91 8.51563890e+00 2.55469167e-01 
471 1021.71 8.65779230e+00 2.59733769e-01 
470 1023.51 8.43754022e+00 2.53126207e-01 
469 1025.30 8.60120502e+00 2.58036151e-01 
468 1027.09 8.48419821e+00 2.54525946e-01 
467 1028.88 8.63775443e+00 2.59132633e-01 
466 1030.67 8.47743950e+00 2.54323185e-01 
465 1032.46 8.64953134e+00 2.59485940e-01 
464 1034.24 8.51349862e+00 2.55404959e-01 
463 1036.02 8.69830542e+00 2.60949162e-01 
462 1037.80 8.59116005e+00 2.57734801e-01 
461 1039.58 8.79179818e+00 2.63753945e-01 
460 1041.35 8.65741482e+00 2.59722445e-01 
459 1043.12 8.81656740e+00 2.64497022e-01 
458 1044.89 8.73876447e+00 2.62162934e-01 
457 1046.66 8.95752096e+00 2.68725629e-01 
456 1048.43 8.88900475e+00 2.66670142e-01 
455 1050.19 9.12081355e+00 2.73624406e-01 
454 1051.95 8.99325405e+00 2.69797622e-01 
453 1053.71 9.25227239e+00 2.77568172e-01 
452 1055.47 9.09425458e+00 2.72827637e-01 
451 1057.23 9.22798528e+00 2.76839558e-01 
450 1058.98 9.10124791e+00 2.73037437e-01 
449 1060.73 9.28693808e+00 2.78608142e-01 
448 1062.48 9.10737422e+00 2.73221227e-01 
447 1064.23 9.25980210e+00 2.77794063e-01 
446 1065.97 8.98228158e+00 2.69468447e-01 
445 1067.71 9.03602951e+00 2.71080885e-01 
444 1069.46 8.80843862e+00 2.64253159e-01 
443 1071.19 8.91212389e+00 2.67363717e-01 
442 1072.93 8.72878700e+00 2.61863610e-01 
441 1074.67 8.80139047e+00 2.64041714e-01 
440 1076.40 8.60546739e+00 2.58164022e-01 
439 1078.13 8.66750725e+00 2.60025218e-01 
438 1079.86 8.41947721e+00 2.52584316e-01 
437 1081.58 8.49847136e+00 2.54954141e-01 
436 1083.31 8.41116803e+00 2.52335041e-01 
435 1085.03 8.60443604e+00 2.58133081e-01 
434 1086.75 8.54012634e+00 2.56203790e-01 
433 1088.47 8.67183099e+00 2.60154930e-01 
432 1090.19 8.55750963e+00 2.56725289e-01 
431 1091.90 8.65171370e+00 2.59551411e-01 
430 1093.61 8.51105041e+00 2.55331512e-01 
429 1095.33 8.72508515e+00 2.61752554e-01 
428 1097.03 8.78460445e+00 2.63538133e-01 
427 1098.74 9.05033252e+00 2.71509976e-01 
426 1100.45 9.08904429e+00 2.72671329e-01 
425 1102.15 9.40869543e+00 2.82260863e-01 
424 1103.85 9.40276313e+00 2.82082894e-01 
423 1105.55 9.63987634e+00 2.89196290e-01 
422 1107.25 9.58062288e+00 2.87418686e-01 
421 1108.94 9.72691931e+00 2.91807579e-01 
420 1110.64 9.53773183e+00 2.86131955e-01 
419 1112.33 9.54032702e+00 2.86209810e-01 
418 1114.02 9.18809668e+00 2.75642901e-01 
417 1115.70 9.15344105e+00 2.74603231e-01 
416 1117.39 8.90893454e+00 2.67268036e-01 
415 1119.07 8.87363071e+00 2.66208921e-01 
414 1120.76 8.68881051e+00 2.60664315e-01 
413 1122.44 8.71664152e+00 2.61499246e-01 
412 1124.12 8.67242485e+00 2.60172746e-01 
411 1125.79 8.92342112e+00 2.67702634e-01 
410 1127.47 9.08545164e+00 2.72563549e-01 
409 1129.14 9.41000478e+00 2.82300143e-01 
408 1130.81 8.98794243e+00 2.69638273e-01 
407 1132.48 8.81975982e+00 2.64592794e-01 
406 1134.15 8.64398170e+00 2.59319451e-01 
405 1135.81 8.92933915e+00 2.67880175e-01 
404 1137.48 9.39570938e+00 2.81871281e-01 
403 1139.14 9.67269218e+00 2.90180765e-01 
402 1140.80 9.45742053e+00 2.83722616e-01 
401 1142.46 9.42818653e+00 2.82845596e-01 
400 1144.12 9.18271889e+00 2.75481567e-01 
399 1145.77 9.20420352e+00 2.76126106e-01 
398 1147.43 9.19332747e+00 2.75799824e-01 
397 1149.08 9.36263393e+00 2.80879018e-01 
396 1150.73 9.33000581e+00 2.79900174e-01 
395 1152.38 9.55825496e+00 2.86747649e-01 
394 1154.02 9.53649299e+00 2.86094790e-01 
393 1155.67 9.76501972e+00 2.92950591e-01 
392 1157.31 9.64598443e+00 2.89379533e-01 
391 1158.95 9.72863223e+00 2.91858967e-01 
390 1160.59 9.66902119e+00 2.90070636e-01 
389 1162.23 9.83534052e+00 2.95060216e-01 
388 1163.87 9.74166384e+00 2.92249915e-01 
387 1165.50 9.81063633e+00 2.94319090e-01 
386 1167.13 9.66363506e+00 2.89909052e-01 
385 1168.76 9.75121149e+00 2.92536345e-01 
384 1170.39 9.61275512e+00 2.88382654e-01 
383 1172.02 9.59153781e+00 2.87746134e-01 
382 1173.65 9.43811010e+00 2.83143303e-01 
381 1175.27 9.43833296e+00 2.83149989e-01 
380 1176.90 9.28942724e+00 2.78682817e-01 
379 1178.52 9.24167301e+00 2.77250190e-01 
378 1180.14 8.98187244e+00 2.69456173e-01 
377 1181.75 8.94357334e+00 2.68307200e-01 
376 1183.37 8.73108716e+00 2.61932615e-01 
375 1184.99 8.73050346e+00 2.61915104e-01 
374 1186.60 8.58357011e+00 2.57507103e-01 
373 1188.21 8.55219276e+00 2.56565783e-01 
372 1189.82 8.45225873e+00 2.53567762e-01 
371 1191.43 8.65011322e+00 2.59503397e-01 
370 1193.04 8.55823301e+00 2.56746990e-01 
369 1194.64 8.53528562e+00 2.56058569e-01 
368 1196.24 8.34257585e+00 2.50277276e-01 
367 1197.85 8.42873047e+00 2.52861914e-01 
366 1199.45 8.35074330e+00 2.50522299e-01 
365 1201.05 8.42034385e+00 2.52610315e-01 
364 1202.64 8.35030681e+00 2.50509204e-01 
363 1204.24 8.38980753e+00 2.51694226e-01 
362 1205.83 8.31207919e+00 2.49362376e-01 
361 1207.43 8.31134783e+00 2.49340435e-01 
360 1209.02 8.25268927e+00 2.47580678e-01 
359 1210.61 8.35700337e+00 2.50710101e-01 
358 1212.19 8.35184864e+00 2.50555459e-01 
357 1213.78 8.50226299e+00 2.55067890e-01 
356 1215.37 8.43960854e+00 2.53188256e-01 
355 1216.95 8.50073087e+00 2.55021926e-01 
354 1218.53 8.47101395e+00 2.54130419e-01 
353 1220.11 8.55552441e+00 2.56665732e-01 
352 1221.69 8.51716213e+00 2.55514864e-01 
351 1223.27 8.56695859e+00 2.57008758e-01 
350 1224.84 8.54660532e+00 2.56398160e-01 
349 1226.42 8.60187811e+00 2.58056343e-01 
348 1227.99 8.57430447e+00 2.57229134e-01 
347 1229.56 8.70513694e+00 2.61154108e-01 
346 1231.13 8.64534750e+00 2.59360425e-01 
345 1232.70 8.72420763e+00 2.61726229e-01 
344 1234.27 8.70971243e+00 2.61291373e-01 
343 1235.84 8.72300824e+00 2.61690247e-01 
342 1237.40 8.63773120e+00 2.59131936e-01 
341 1238.96 8.59619083e+00 2.57885725e-01 
340 1240.52 8.43389564e+00 2.53016869e-01 
339 1242.08 8.53391777e+00 2.56017533e-01 
338 1243.64 8.51082495e+00 2.55324748e-01 
337 1245.20 8.55500903e+00 2.56650271e-01 
336 1246.75 8.54070525e+00 2.56221158e-01 
335 1248.31 8.59982625e+00 2.57994788e-01 
334 1249.86 8.56458608e+00 2.56937582e-01 
333 1251.41 8.62509177e+00 2.58752753e-01 
332 1252.96 8.57305034e+00 2.57191510e-01 
331 1254.51 8.58652652e+00 2.57595796e-01 
330 1256.06 8.50749835e+00 2.55224951e-01 
329 1257.61 8.48692085e+00 2.54607625e-01 
328 1259.15 8.37570798e+00 2.51271239e-01 
327 1260.69 8.31379958e+00 2.49413987e-01 
326 1262.23 8.16592795e+00 2.44977838e-01 
325 1263.77 8.10792805e+00 2.43237842e-01 
324 1265.31 7.91628489e+00 2.37488547e-01 
323 1266.85 7.91994501e+00 2.37598350e-01 
322 1268.39 7.97088076e+00 2.39126423e-01 
321 1269.92 8.07617725e+00 2.42285318e-01 
320 1271.46 8.28049790e+00 2.48414937e-01 
319 1272.99 8.36549706e+00 2.50964912e-01 
318 1274.52 8.34898943e+00 2.50469683e-01 
317 1276.05 8.40479101e+00 2.52143730e-01 
316 1277.58 8.25471802e+00 2.47641541e-01 
315 1279.10 8.09011018e+00 2.42703305e-01 
314 1280.63 8.02240031e+00 2.40672009e-01 
313 1282.15 8.01302436e+00 2.40390731e-01 
312 1283.68 8.09619676e+00 2.42885903e-01 
311 1285.20 8.28897491e+00 2.48669247e-01 
310 1286.72 8.26025701e+00 2.47807710e-01 
309 1288.24 8.28117918e+00 2.48435375e-01 
308 1289.75 8.18880350e+00 2.45664105e-01 
307 1291.27 8.22805720e+00 2.46841716e-01 
306 1292.78 8.27731960e+00 2.48319588e-01 
305 1294.30 8.30640873e+00 2.49192262e-01 
304 1295.81 8.22980415e+00 2.46894125e-01 
303 1297.32 8.22733271e+00 2.46819981e-01 
302 1298.83 8.16497622e+00 2.44949286e-01 
301 1300.34 8.11016756e+00 2.43305027e-01 
300 1301.85 8.04218993e+00 2.41265698e-01 
299 1303.35 7.98442199e+00 2.39532660e-01 
298 1304.86 7.90044073e+00 2.37013222e-01 
297 1306.36 7.88802108e+00 2.36640632e-01 
296 1307.86 7.84698812e+00 2.35409644e-01 
295 1309.36 7.75960378e+00 2.32788113e-01 
294 1310.86 7.67487447e+00 2.30246234e-01 
293 1312.36 7.60418652e+00 2.28125596e-01 
292 1313.86 7.56830589e+00 2.27049177e-01 
291 1315.36 7.58886307e+00 2.27665892e-01 
290 1316.85 7.56447069e+00 2.26934121e-01 
289 1318.34 7.55287009e+00 2.26586103e-01 
288 1319.84 7.50463726e+00 2.25139118e-01 
287 1321.33 7.49789856e+00 2.24936957e-01 
286 1322.82 7.42573157e+00 2.22771947e-01 
285 1324.30 7.39123419e+00 2.21737026e-01 
284 1325.79 7.25920596e+00 2.17776179e-01 
283 1327.28 7.16436107e+00 2.14930832e-01 
282 1328.76 7.02181031e+00 2.10654309e-01 
281 1330.25 6.97497378e+00 2.09249213e-01 
280 1331.73 6.92575043e+00 2.07772513e-01 
279 1333.21 6.90519841e+00 2.07155952e-01 
278 1334.69 6.85952185e+00 2.05785656e-01 
277 1336.17 6.77339666e+00 2.03201900e-01 
276 1337.65 6.69539117e+00 2.00861735e-01 
275 1339.12 6.62436918e+00 1.98731075e-01 
274 1340.60 6.55875884e+00 1.96762765e-01 
273 1342.07 6.48012171e+00 1.94403651e-01 
272 1343.55 6.28773690e+00 1.88632107e-01 
271 1345.02 5.86272795e+00 1.75881839e-01 
270 1346.49 5.57255849e+00 1.67176755e-01 
269 1347.96 5.27023561e+00 1.58107068e-01 
268 1349.43 4.93501319e+00 1.48050396e-01 
267 1350.89 4.59255717e+00 1.37776715e-01 
266 1352.36 4.11470655e+00 1.23441196e-01 
265 1353.82 3.82292587e+00 1.14687776e-01 
264 1355.29 3.52301695e+00 1.05690509e-01 
263 1356.75 3.28419494e+00 9.85258482e-02 
262 1358.21 2.85033118e+00 8.55099355e-02 
261 1359.67 2.41472309e+00 7.24416927e-02 
260 1361.13 2.18712781e+00 6.56138344e-02 
259 1362.59 2.23266568e+00 6.69799705e-02 
258 1364.04 2.41763110e+00 7.25289329e-02 
257 1365.50 2.41322837e+00 7.23968511e-02 
256 1366.95 2.18790733e+00 6.56372200e-02 
255 1368.41 2.33342599e+00 7.00027797e-02 
254 1369.86 2.42179577e+00 7.26538731e-02 
253 1371.31 2.60135084e+00 7.80405253e-02 
252 1372.76 2.57007525e+00 7.71022575e-02 
251 1374.21 2.83044176e+00 8.49132529e-02 
250 1375.65 2.79072402e+00 8.37217207e-02 
249 1377.10 2.51126282e+00 7.53378847e-02 
248 1378.55 2.12255484e+00 6.36766453e-02 
247 1379.99 1.75474975e+00 5.26424926e-02 
246 1381.43 1.40658807e+00 4.21976421e-02 
245 1382.87 1.61678092e+00 4.85034275e-02 
244 1384.32 1.77756956e+00 5.33270867e-02 
243 1385.75 2.03091142e+00 6.09273427e-02 
242 1387.19 2.37620018e+00 7.12860055e-02 
241 1388.63 2.52015265e+00 7.56045794e-02 
240 1390.07 2.56934998e+00 7.70804994e-02 
239 1391.50 2.51249241e+00 7.53747722e-02 
238 1392.94 2.08855258e+00 6.26565775e-02 
237 1394.37 2.18348051e+00 6.55044154e-02 
236 1395.80 2.38571318e+00 7.15713953e-02 
235 1397.23 2.28766115e+00 6.86298345e-02 
234 1398.66 2.43324647e+00 7.29973941e-02 
233 1400.09 2.59723785e+00 7.79171354e-02 
232 1401.52 2.43354703e+00 7.30064108e-02 
231 1402.94 2.63754836e+00 7.91264508e-02 
230 1404.37 2.77144520e+00 8.31433560e-02 
229 1405.79 2.64516775e+00 7.93550326e-02 
228 1407.22 2.73498884e+00 8.20496651e-02 
227 1408.64 2.91036845e+00 8.73110534e-02 
226 1410.06 3.09527357e+00 9.28582072e-02 
225 1411.48 3.11728854e+00 9.35186561e-02 
224 1412.90 3.28255745e+00 9.84767236e-02 
223 1414.32 3.39041665e+00 1.01712499e-01 
222 1415.73 3.34276727e+00 1.00283018e-01 
221 1417.15 3.40228291e+00 1.02068487e-01 
220 1418.56 3.52760144e+00 1.05828043e-01 
219 1419.98 3.48331395e+00 1.04499419e-01 
218 1421.39 3.60557033e+00 1.08167110e-01 
217 1422.80 3.77178816e+00 1.13153645e-01 
216 1424.21 3.83437504e+00 1.15031251e-01 
215 1425.62 3.83874781e+00 1.15162434e-01 
214 1427.03 3.93173272e+00 1.17951982e-01 
213 1428.44 3.74566331e+00 1.12369899e-01 
212 1429.84 3.55655494e+00 1.06696648e-01 
211 1431.25 3.51384350e+00 1.05415305e-01 
210 1432.65 3.50700969e+00 1.05210291e-01 
209 1434.06 3.59948038e+00 1.07984411e-01 
208 1435.46 3.73292267e+00 1.11987680e-01 
207 1436.86 3.75795123e+00 1.12738537e-01 
206 1438.26 3.79527730e+00 1.13858319e-01 
205 1439.66 3.81246978e+00 1.14374093e-01 
204 1441.05 3.95204523e+00 1.18561357e-01 
203 1442.45 3.88291922e+00 1.16487577e-01 
202 1443.85 3.90923620e+00 1.17277086e-01 
201 1445.24 4.00047563e+00 1.20014269e-01 
200 1446.64 4.04823696e+00 1.21447109e-01 
199 1448.03 4.01626781e+00 1.20488034e-01 
198 1449.42 4.11930734e+00 1.23579220e-01 
197 1450.81 4.13266949e+00 1.23980085e-01 
196 1452.20 4.16659779e+00 1.24997934e-01 
195 1453.59 4.34418941e+00 1.30325682e-01 
194 1454.97 4.49081617e+00 1.34724485e-01 
193 1456.36 4.51332598e+00 1.35399779e-01 
192 1457.75 4.57041542e+00 1.37112463e-01 
191 1459.13 4.53948045e+00 1.36184414e-01 
190 1460.51 4.51971344e+00 1.35591403e-01 
189 1461.90 4.36493014e+00 1.30947904e-01 
188 1463.28 4.30262637e+00 1.29078791e-01 
187 1464.66 4.20817730e+00 1.26245319e-01 
186 1466.04 4.24251577e+00 1.27275473e-01 
185 1467.41 4.14983010e+00 1.24494903e-01 
184 1468.79 4.09709494e+00 1.22912848e-01 
183 1470.17 4.03388334e+00 1.21016500e-01 
182 1471.54 4.06721548e+00 1.22016464e-01 
181 1472.92 4.12428756e+00 1.23728627e-01 
180 1474.29 4.24610766e+00 1.27383230e-01 
179 1475.66 4.25642502e+00 1.27692751e-01 
178 1477.03 4.21705041e+00 1.26511512e-01 
177 1478.40 4.19226801e+00 1.25768040e-01 
176 1479.77 4.24010023e+00 1.27203007e-01 
175 1481.14 4.23587230e+00 1.27076169e-01 
174 1482.51 4.31537742e+00 1.29461322e-01 
173 1483.87 4.28372975e+00 1.28511893e-01 
172 1485.24 4.24954133e+00 1.27486240e-01 
171 1486.60 4.18686540e+00 1.25605962e-01 
170 1487.96 4.22476058e+00 1.26742817e-01 
169 1489.32 4.21513748e+00 1.26454124e-01 
168 1490.69 4.36475706e+00 1.30942712e-01 
167 1492.04 4.38328455e+00 1.31498537e-01 
166 1493.40 4.45470173e+00 1.33641052e-01 
165 1494.76 4.43483904e+00 1.33045171e-01 
164 1496.12 4.45299343e+00 1.33589803e-01 
163 1497.47 4.39531110e+00 1.31859333e-01 
162 1498.83 4.45948439e+00 1.33784532e-01 
161 1500.18 4.31076844e+00 1.29323053e-01 
160 1501.53 4.25038839e+00 1.27511652e-01 
159 1502.89 4.14436421e+00 1.24330926e-01 
158 1504.24 4.18868945e+00 1.25660683e-01 
157 1505.59 4.22305695e+00 1.26691709e-01 
156 1506.93 4.34004137e+00 1.30201241e-01 
155 1508.28 4.36473875e+00 1.30942163e-01 
154 1509.63 4.41078871e+00 1.32323661e-01 
153 1510.97 4.36612663e+00 1.30983799e-01 
152 1512.32 4.42868844e+00 1.32860653e-01 
151 1513.66 4.35484550e+00 1.30645365e-01 
150 1515.00 4.40651471e+00 1.32195441e-01 
149 1516.34 4.35495969e+00 1.30648791e-01 
148 1517.69 4.35553548e+00 1.30666064e-01 
147 1519.02 4.26416877e+00 1.27925063e-01 
146 1520.36 4.26273915e+00 1.27882174e-01 
145 1521.70 4.19565760e+00 1.25869728e-01 
144 1523.04 4.25134440e+00 1.27540332e-01 
143 1524.37 4.21450156e+00 1.26435047e-01 
142 1525.71 4.26828764e+00 1.28048629e-01 
141 1527.04 4.20335594e+00 1.26100678e-01 
140 1528.37 4.21975288e+00 1.26592586e-01 
139 1529.70 4.13544128e+00 1.24063238e-01 
138 1531.03 4.18079893e+00 1.25423968e-01 
137 1532.36 4.12450645e+00 1.23735194e-01 
136 1533.69 4.15870626e+00 1.24761188e-01 
135 1535.02 4.06167045e+00 1.21850114e-01 
134 1536.34 4.08257968e+00 1.22477390e-01 
133 1537.67 4.02012765e+00 1.20603829e-01 
132 1538.99 4.05866070e+00 1.21759821e-01 
131 1540.31 4.01423560e+00 1.20427068e-01 
130 1541.64 4.06654461e+00 1.21996338e-01 
129 1542.96 4.02425144e+00 1.20727543e-01 
128 1544.28 4.05664671e+00 1.21699401e-01 
127 1545.60 3.96865246e+00 1.19059574e-01 
126 1546.91 4.00900383e+00 1.20270115e-01 
125 1548.23 3.92242502e+00 1.17672751e-01 
124 1549.55 3.97334752e+00 1.19200426e-01 
123 1550.86 3.89837480e+00 1.16951244e-01 
122 1552.18 3.91895350e+00 1.17568605e-01 
121 1553.49 3.85910031e+00 1.15773009e-01 
120 1554.80 3.89901589e+00 1.16970477e-01 
119 1556.11 3.81625972e+00 1.14487792e-01 
118 1557.42 3.84931962e+00 1.15479589e-01 
117 1558.73 3.78503396e+00 1.13551019e-01 
116 1560.04 3.81537052e+00 1.14461116e-01 
115 1561.34 3.73119973e+00 1.11935992e-01 
114 1562.65 3.78435193e+00 1.13530558e-01 
113 1563.95 3.70197109e+00 1.11059133e-01 
112 1565.26 3.76222497e+00 1.12866749e-01 
111 1566.56 3.64406474e+00 1.09321942e-01 
110 1567.86 3.67734243e+00 1.10320273e-01 
109 1569.16 3.57770085e+00 1.07331025e-01 
108 1570.46 3.58070222e+00 1.07421066e-01 
107 1571.76 3.49230820e+00 1.04769246e-01 
106 1573.05 3.46413852e+00 1.03924155e-01 
105 1574.35 3.34901511e+00 1.00470453e-01 
104 1575.64 3.37814320e+00 1.01344296e-01 
103 1576.94 3.33437245e+00 1.00031174e-01 
102 1578.23 3.41066677e+00 1.02320003e-01 
101 1579.52 3.39454924e+00 1.01836477e-01 
100 1580.81 3.46639931e+00 1.03991979e-01 
99 1582.10 3.39773151e+00 1.01931945e-01 
98 1583.39 3.45424509e+00 1.03627353e-01 
97 1584.68 3.36512594e+00 1.00953778e-01 
96 1585.97 3.34563244e+00 1.00368973e-01 
95 1587.25 3.23779832e+00 9.71339497e-02 
94 1588.54 3.24597803e+00 9.73793409e-02 
93 1589.82 3.17040704e+00 9.51122111e-02 
92 1591.10 3.27186404e+00 9.81559213e-02 
91 1592.38 3.23051349e+00 9.69154047e-02 
90 1593.66 3.29045006e+00 9.87135019e-02 
89 1594.94 3.21274889e+00 9.63824666e-02 
88 1596.22 3.23557530e+00 9.70672590e-02 
87 1597.50 3.13384738e+00 9.40154213e-02 
86 1598.77 3.13964064e+00 9.41892192e-02 
85 1600.05 3.03203799e+00 9.09611397e-02 
84 1601.32 3.04877270e+00 9.14631811e-02 
83 1602.59 2.97561790e+00 8.92685369e-02 
82 1603.86 3.02796667e+00 9.08390002e-02 
81 1605.13 2.92252563e+00 8.76757690e-02 
80 1606.40 2.98913951e+00 8.96741854e-02 
79 1607.67 2.87921091e+00 8.63763272e-02 
78 1608.94 2.92975622e+00 8.78926867e-02 
77 1610.20 2.86858575e+00 8.60575726e-02 
76 1611.47 2.93562626e+00 8.80687878e-02 
75 1612.73 2.87851891e+00 8.63555674e-02 
74 1614.00 2.92345929e+00 8.77037787e-02 
73 1615.26 2.83349456e+00 8.50048368e-02 
72 1616.52 2.85749743e+00 8.57249230e-02 
71 1617.78 2.75815854e+00 8.27447563e-02 
70 1619.03 2.79474971e+00 8.38424912e-02 
69 1620.29 2.73184586e+00 8.19553758e-02 
68 1621.55 2.79216388e+00 8.37649164e-02 
67 1622.80 2.72861948e+00 8.18585844e-02 
66 1624.06 2.80299134e+00 8.40897401e-02 
65 1625.31 2.71533824e+00 8.14601473e-02 
64 1626.56 2.78091732e+00 8.34275196e-02 
63 1627.81 2.67927481e+00 8.03782443e-02 
62 1629.06 2.68836532e+00 8.06509596e-02 
61 1630.31 2.58902244e+00 7.76706731e-02 
60 1631.56 2.60645118e+00 7.81935355e-02 
59 1632.80 2.50913808e+00 7.52741423e-02 
58 1634.05 2.54591942e+00 7.63775827e-02 
57 1635.29 2.43397586e+00 7.30192758e-02 
56 1636.53 2.45580130e+00 7.36740390e-02 
55 1637.77 2.32639082e+00 6.97917247e-02 
54 1639.01 2.34940457e+00 7.04821370e-02 
53 1640.25 2.27120291e+00 6.81360874e-02 
52 1641.49 2.29204771e+00 6.87614312e-02 
51 1642.73 2.21370507e+00 6.64111521e-02 
