% C0 (TOA Count Rate, /ms) for 4STAR VIS spectrometer (1044 channels) derived from 4STAR_20160908starsun.mat and recorded on 2017-05-23 17:34:19.
% Using the MLO from September 2016 high altitude AOD for stratospheric AOD component, calculating the c0 from the AOD at low airmass. 
Pix Wavelength C0 C0err
0 173.18 0.00000000e+00 0.00000000e+00 
1 173.98 -1.00000000e+00 0.00000000e+00 
2 174.77 -1.00000000e+00 0.00000000e+00 
3 175.56 -1.00000000e+00 0.00000000e+00 
4 176.36 -1.00000000e+00 0.00000000e+00 
5 177.15 -1.00000000e+00 0.00000000e+00 
6 177.94 -1.00000000e+00 0.00000000e+00 
7 178.74 -1.00000000e+00 0.00000000e+00 
8 179.53 -1.00000000e+00 0.00000000e+00 
9 180.33 -1.00000000e+00 0.00000000e+00 
10 181.12 -1.00000000e+00 0.00000000e+00 
11 181.92 -1.00000000e+00 0.00000000e+00 
12 182.71 -1.00000000e+00 0.00000000e+00 
13 183.51 -1.00000000e+00 0.00000000e+00 
14 184.30 -1.00000000e+00 0.00000000e+00 
15 185.10 -1.00000000e+00 0.00000000e+00 
16 185.89 -1.00000000e+00 0.00000000e+00 
17 186.69 -1.00000000e+00 0.00000000e+00 
18 187.49 -1.00000000e+00 0.00000000e+00 
19 188.28 -1.00000000e+00 0.00000000e+00 
20 189.08 -1.00000000e+00 0.00000000e+00 
21 189.88 -1.00000000e+00 0.00000000e+00 
22 190.67 -1.00000000e+00 0.00000000e+00 
23 191.47 -1.00000000e+00 0.00000000e+00 
24 192.27 -1.00000000e+00 0.00000000e+00 
25 193.07 -1.00000000e+00 0.00000000e+00 
26 193.86 -1.00000000e+00 0.00000000e+00 
27 194.66 -1.00000000e+00 0.00000000e+00 
28 195.46 -1.00000000e+00 0.00000000e+00 
29 196.26 -1.00000000e+00 0.00000000e+00 
30 197.05 -1.00000000e+00 0.00000000e+00 
31 197.85 -1.00000000e+00 0.00000000e+00 
32 198.65 -1.00000000e+00 0.00000000e+00 
33 199.45 -1.00000000e+00 0.00000000e+00 
34 200.25 -1.00000000e+00 0.00000000e+00 
35 201.05 -1.00000000e+00 0.00000000e+00 
36 201.85 -1.00000000e+00 0.00000000e+00 
37 202.65 -1.00000000e+00 0.00000000e+00 
38 203.44 -1.00000000e+00 0.00000000e+00 
39 204.24 -1.00000000e+00 0.00000000e+00 
40 205.04 -1.00000000e+00 0.00000000e+00 
41 205.84 -1.00000000e+00 0.00000000e+00 
42 206.64 -1.00000000e+00 0.00000000e+00 
43 207.44 -1.00000000e+00 0.00000000e+00 
44 208.24 -1.00000000e+00 0.00000000e+00 
45 209.04 -1.00000000e+00 0.00000000e+00 
46 209.84 -1.00000000e+00 -1.00000000e+00 
47 210.64 -1.00000000e+00 -1.00000000e+00 
48 211.44 -1.00000000e+00 -1.00000000e+00 
49 212.24 2.33176663e+35 -1.00000000e+00 
50 213.04 3.07986384e+34 -1.00000000e+00 
51 213.85 4.07161264e+33 -1.00000000e+00 
52 214.65 5.44119368e+32 -1.00000000e+00 
53 215.45 7.23864983e+31 -1.00000000e+00 
54 216.25 9.50493445e+30 -1.00000000e+00 
55 217.05 1.27489675e+30 -1.00000000e+00 
56 217.85 1.70852688e+29 -1.00000000e+00 
57 218.65 2.28615664e+28 -1.00000000e+00 
58 219.46 3.05811274e+27 -1.00000000e+00 
59 220.26 4.15018390e+26 -1.00000000e+00 
60 221.06 5.38704556e+25 -1.00000000e+00 
61 221.86 7.27976255e+24 -1.00000000e+00 
62 222.66 9.70051725e+23 -1.00000000e+00 
63 223.47 1.29166111e+23 -1.00000000e+00 
64 224.27 1.76873021e+22 -1.00000000e+00 
65 225.07 2.39835595e+21 -1.00000000e+00 
66 225.87 3.19329596e+20 -1.00000000e+00 
67 226.68 4.19239781e+19 -1.00000000e+00 
68 227.48 6.19013447e+18 -1.00000000e+00 
69 228.28 1.02044891e+18 1.79437068e+17 
70 229.08 2.32632780e+17 3.85041885e+16 
71 229.89 9.66545024e+16 1.60735361e+16 
72 230.69 9.23378283e+16 1.55812577e+16 
73 231.49 2.19246226e+17 3.67457774e+16 
74 232.30 1.08033807e+18 1.91304681e+17 
75 233.10 8.16374299e+18 -1.00000000e+00 
76 233.90 7.23671329e+19 -1.00000000e+00 
77 234.71 7.24716297e+20 -1.00000000e+00 
78 235.51 7.47465301e+21 -1.00000000e+00 
79 236.32 7.91786137e+22 -1.00000000e+00 
80 237.12 8.39287296e+23 -1.00000000e+00 
81 237.92 9.00908140e+24 -1.00000000e+00 
82 238.73 9.92572628e+25 -1.00000000e+00 
83 239.53 1.06152032e+27 -1.00000000e+00 
84 240.34 1.15176972e+28 -1.00000000e+00 
85 241.14 1.13824814e+29 -1.00000000e+00 
86 241.94 1.00899918e+30 -1.00000000e+00 
87 242.75 8.80816945e+30 -1.00000000e+00 
88 243.55 6.86837278e+31 -1.00000000e+00 
89 244.36 4.91894894e+32 -1.00000000e+00 
90 245.16 3.28724207e+33 -1.00000000e+00 
91 245.97 1.92403847e+34 -1.00000000e+00 
92 246.77 9.58897163e+34 -1.00000000e+00 
93 247.58 4.42575924e+35 -1.00000000e+00 
94 248.38 -1.00000000e+00 -1.00000000e+00 
95 249.19 -1.00000000e+00 -1.00000000e+00 
96 249.99 -1.00000000e+00 -1.00000000e+00 
97 250.80 -1.00000000e+00 -1.00000000e+00 
98 251.60 -1.00000000e+00 -1.00000000e+00 
99 252.41 -1.00000000e+00 -1.00000000e+00 
100 253.21 -1.00000000e+00 -1.00000000e+00 
101 254.02 -1.00000000e+00 -1.00000000e+00 
102 254.82 -1.00000000e+00 -1.00000000e+00 
103 255.63 -1.00000000e+00 -1.00000000e+00 
104 256.44 -1.00000000e+00 -1.00000000e+00 
105 257.24 -1.00000000e+00 -1.00000000e+00 
106 258.05 -1.00000000e+00 -1.00000000e+00 
107 258.85 -1.00000000e+00 -1.00000000e+00 
108 259.66 -1.00000000e+00 -1.00000000e+00 
109 260.46 -1.00000000e+00 -1.00000000e+00 
110 261.27 -1.00000000e+00 -1.00000000e+00 
111 262.08 2.58914743e+35 -1.00000000e+00 
112 262.88 4.70208548e+34 -1.00000000e+00 
113 263.69 7.77689283e+33 -1.00000000e+00 
114 264.49 1.32513295e+33 -1.00000000e+00 
115 265.30 1.96315259e+32 -1.00000000e+00 
116 266.11 2.31993373e+31 -1.00000000e+00 
117 266.91 2.33163694e+30 -1.00000000e+00 
118 267.72 2.13885347e+29 -1.00000000e+00 
119 268.53 1.69521836e+28 -1.00000000e+00 
120 269.33 1.42298346e+27 -1.00000000e+00 
121 270.14 1.42198802e+26 -1.00000000e+00 
122 270.95 1.27236521e+25 -1.00000000e+00 
123 271.75 1.05752705e+24 -1.00000000e+00 
124 272.56 8.09328108e+22 -1.00000000e+00 
125 273.37 5.52565216e+21 -1.00000000e+00 
126 274.17 3.74974209e+20 -1.00000000e+00 
127 274.98 2.85605006e+19 -1.00000000e+00 
128 275.79 2.56529477e+18 4.48889572e+17 
129 276.59 2.43708178e+17 4.09433005e+16 
130 277.40 2.37099740e+16 3.71575767e+15 
131 278.21 2.33510795e+15 3.47953185e+14 
132 279.01 2.45486942e+14 3.44717200e+13 
133 279.82 2.68319945e+13 3.52225853e+12 
134 280.63 2.90011297e+12 3.67020212e+11 
135 281.43 3.31772035e+11 3.96465521e+10 
136 282.24 4.54377349e+10 5.06484429e+09 
137 283.05 7.45297510e+09 7.85218624e+08 
138 283.86 1.31138790e+09 1.29469952e+08 
139 284.66 2.32731440e+08 2.08198500e+07 
140 285.47 4.75467160e+07 4.11982925e+06 
141 286.28 1.15626810e+07 9.53599125e+05 
142 287.09 2.96282125e+06 2.18961469e+05 
143 287.89 7.73906125e+05 5.82839375e+04 
144 288.70 2.20141813e+05 1.52804346e+04 
145 289.51 7.18005859e+04 4.59564111e+03 
146 290.32 2.66437480e+04 1.64601709e+03 
147 291.12 1.01521445e+04 6.33326233e+02 
148 291.93 4.06645288e+03 2.27832001e+02 
149 292.74 1.77819519e+03 9.54564743e+01 
150 293.55 8.32964111e+02 4.63703728e+01 
151 294.35 4.28150635e+02 2.13267765e+01 
152 295.16 2.27159714e+02 1.12358589e+01 
153 295.97 1.25686058e+02 5.94703722e+00 
154 296.78 7.36417007e+01 3.45683098e+00 
155 297.58 4.52105370e+01 1.96896732e+00 
156 298.39 2.92349777e+01 1.38547790e+00 
157 299.20 1.99628429e+01 8.71940970e-01 
158 300.01 1.37850637e+01 6.09818161e-01 
159 300.81 1.02506018e+01 4.64539915e-01 
160 301.62 7.89158058e+00 3.34234297e-01 
161 302.43 5.99566364e+00 2.45073125e-01 
162 303.24 4.80917931e+00 2.14379773e-01 
163 304.04 4.06037760e+00 1.70713454e-01 
164 304.85 3.36631107e+00 1.29810572e-01 
165 305.66 2.88703537e+00 1.18001856e-01 
166 306.47 2.47992229e+00 1.02109954e-01 
167 307.28 2.18682265e+00 8.64953920e-02 
168 308.08 1.95894396e+00 7.77666345e-02 
169 308.89 1.77150524e+00 6.81457445e-02 
170 309.70 1.62591374e+00 6.18206523e-02 
171 310.51 1.49979532e+00 5.49322776e-02 
172 311.32 1.39151144e+00 5.38044944e-02 
173 312.12 1.30773544e+00 4.97071557e-02 
174 312.93 1.21875310e+00 4.64668907e-02 
175 313.74 1.18042707e+00 4.92372215e-02 
176 314.55 1.14691556e+00 4.04195189e-02 
177 315.36 1.05848551e+00 3.86583991e-02 
178 316.16 1.05172980e+00 3.99175473e-02 
179 316.97 1.05245280e+00 3.72288823e-02 
180 317.78 1.01016188e+00 3.80027443e-02 
181 318.59 1.00214875e+00 3.44152115e-02 
182 319.40 9.98987317e-01 3.50243784e-02 
183 320.20 9.98019636e-01 3.16535719e-02 
184 321.01 9.87651348e-01 3.31923105e-02 
185 321.82 9.98417020e-01 2.90498752e-02 
186 322.63 1.00554526e+00 3.04401498e-02 
187 323.43 1.00008535e+00 2.85736099e-02 
188 324.24 1.00706792e+00 2.77480725e-02 
189 325.05 1.03660595e+00 2.90189907e-02 
190 325.86 1.05040216e+00 2.84246039e-02 
191 326.67 1.05917597e+00 2.85159312e-02 
192 327.48 1.07612419e+00 2.90079862e-02 
193 328.28 1.10260928e+00 2.93432791e-02 
194 329.09 1.14765346e+00 3.01878657e-02 
195 329.90 1.19017804e+00 2.80353576e-02 
196 330.71 1.24604905e+00 3.02232821e-02 
197 331.52 1.33359182e+00 2.89405081e-02 
198 332.32 1.50292945e+00 3.08369379e-02 
199 333.13 1.78457212e+00 2.97640432e-02 
200 333.94 2.30237293e+00 3.50703374e-02 
201 334.75 3.11817813e+00 3.65773924e-02 
202 335.55 4.23879004e+00 4.22728248e-02 
203 336.36 5.78385353e+00 4.47528288e-02 
204 337.17 8.18707943e+00 5.45862131e-02 
205 337.98 1.15201139e+01 6.46928623e-02 
206 338.79 1.54033890e+01 7.60495961e-02 
207 339.60 1.97656822e+01 7.79416785e-02 
208 340.40 2.36729393e+01 8.75269249e-02 
209 341.21 2.68959332e+01 9.42931101e-02 
210 342.02 3.07102795e+01 1.01096511e-01 
211 342.83 3.41191750e+01 1.00122944e-01 
212 343.63 3.50038795e+01 1.06811933e-01 
213 344.44 3.61585312e+01 1.08226299e-01 
214 345.25 4.00449829e+01 1.14310116e-01 
215 346.06 4.38131599e+01 1.16754584e-01 
216 346.87 4.62541618e+01 1.25355184e-01 
217 347.67 4.79899330e+01 1.20627485e-01 
218 348.48 4.95563812e+01 1.33465856e-01 
219 349.29 5.24060440e+01 1.27572313e-01 
220 350.10 5.74526100e+01 1.39504045e-01 
221 350.90 6.09497566e+01 1.39065027e-01 
222 351.71 6.10486450e+01 1.36111066e-01 
223 352.52 6.20581856e+01 1.38825268e-01 
224 353.33 6.73169785e+01 1.47819623e-01 
225 354.14 7.41222458e+01 1.62018448e-01 
226 354.94 7.71662903e+01 1.58726528e-01 
227 355.75 7.57933578e+01 1.57932296e-01 
228 356.56 7.12785416e+01 1.44658282e-01 
229 357.37 6.68306274e+01 1.46492094e-01 
230 358.18 6.56753845e+01 1.42426774e-01 
231 358.98 7.34316788e+01 1.54602081e-01 
232 359.79 8.47868805e+01 1.66422307e-01 
233 360.60 8.63951645e+01 1.52455077e-01 
234 361.41 8.47898788e+01 1.60790592e-01 
235 362.21 8.93073120e+01 1.62600040e-01 
236 363.02 9.45874405e+01 1.68148831e-01 
237 363.83 9.77051392e+01 1.59244031e-01 
238 364.64 1.02354530e+02 1.74423501e-01 
239 365.44 1.11632790e+02 1.88797161e-01 
240 366.25 1.19892868e+02 1.98361471e-01 
241 367.06 1.21036705e+02 1.96131811e-01 
242 367.87 1.19059059e+02 1.84025481e-01 
243 368.67 1.20713821e+02 1.92546666e-01 
244 369.48 1.26309456e+02 1.94464520e-01 
245 370.29 1.27678734e+02 2.02943668e-01 
246 371.10 1.26487694e+02 1.89498916e-01 
247 371.90 1.23584549e+02 1.94765732e-01 
248 372.71 1.16851112e+02 1.81902483e-01 
249 373.52 1.10494186e+02 1.79747671e-01 
250 374.33 1.09711418e+02 1.86631635e-01 
251 375.13 1.17645180e+02 1.87001020e-01 
252 375.94 1.28506607e+02 1.97963879e-01 
253 376.75 1.39880264e+02 1.96055532e-01 
254 377.56 1.53779556e+02 2.06645474e-01 
255 378.36 1.58066971e+02 2.23808303e-01 
256 379.17 1.49693542e+02 2.12461680e-01 
257 379.98 1.46398087e+02 1.98391616e-01 
258 380.78 1.47058273e+02 2.12107196e-01 
259 381.59 1.34556870e+02 2.03563109e-01 
260 382.40 1.14238426e+02 1.77835211e-01 
261 383.20 1.04513397e+02 1.76614776e-01 
262 384.01 1.13566833e+02 1.88770249e-01 
263 384.82 1.29234879e+02 1.96729839e-01 
264 385.63 1.35437881e+02 1.96017459e-01 
265 386.43 1.36435989e+02 1.98178291e-01 
266 387.24 1.37426819e+02 1.96065664e-01 
267 388.05 1.39096390e+02 2.07367912e-01 
268 388.85 1.47207611e+02 2.15987012e-01 
269 389.66 1.61020599e+02 2.05698118e-01 
270 390.47 1.72029404e+02 2.30075762e-01 
271 391.27 1.73454315e+02 2.22647250e-01 
272 392.08 1.55125748e+02 2.21746489e-01 
273 392.89 1.24262764e+02 1.88251317e-01 
274 393.69 1.15823105e+02 1.82826832e-01 
275 394.50 1.39588928e+02 2.01253816e-01 
276 395.31 1.57709152e+02 2.02655032e-01 
277 396.11 1.46014496e+02 2.14616716e-01 
278 396.92 1.35525040e+02 1.98096290e-01 
279 397.73 1.60270905e+02 2.25008085e-01 
280 398.53 1.99057632e+02 2.53498435e-01 
281 399.34 2.22559464e+02 2.72621334e-01 
282 400.15 2.33336121e+02 2.77456760e-01 
283 400.95 2.40846664e+02 2.61492699e-01 
284 401.76 2.47143753e+02 2.88675725e-01 
285 402.57 2.48570602e+02 2.70119309e-01 
286 403.37 2.46517670e+02 2.87085772e-01 
287 404.18 2.44941681e+02 2.89206237e-01 
288 404.99 2.43442001e+02 2.84507811e-01 
289 405.79 2.41787735e+02 2.96238124e-01 
290 406.60 2.41925705e+02 2.80430496e-01 
291 407.40 2.47575317e+02 2.99601823e-01 
292 408.21 2.57175018e+02 3.01033884e-01 
293 409.02 2.61176941e+02 3.03878874e-01 
294 409.82 2.56897736e+02 2.80807436e-01 
295 410.63 2.59060425e+02 2.97764778e-01 
296 411.43 2.70893463e+02 3.18058580e-01 
297 412.24 2.78305573e+02 3.32568467e-01 
298 413.05 2.78505219e+02 3.24529648e-01 
299 413.85 2.78123199e+02 3.13670427e-01 
300 414.66 2.78310974e+02 3.21164817e-01 
301 415.46 2.79104065e+02 3.24263066e-01 
302 416.27 2.79490814e+02 3.08359474e-01 
303 417.08 2.75592834e+02 3.01357090e-01 
304 417.88 2.70196472e+02 3.01790804e-01 
305 418.69 2.68106323e+02 2.95037806e-01 
306 419.49 2.68450684e+02 3.01587760e-01 
307 420.30 2.71751190e+02 3.17385852e-01 
308 421.11 2.75538788e+02 3.07741076e-01 
309 421.91 2.73425903e+02 3.08865845e-01 
310 422.72 2.68340912e+02 3.07030797e-01 
311 423.52 2.68537537e+02 3.01617622e-01 
312 424.33 2.72289734e+02 3.03569674e-01 
313 425.13 2.74489929e+02 3.09171647e-01 
314 425.94 2.75127411e+02 3.04245412e-01 
315 426.74 2.75145660e+02 3.22232544e-01 
316 427.55 2.75100464e+02 3.13454032e-01 
317 428.36 2.73031769e+02 3.12691212e-01 
318 429.16 2.63116241e+02 3.08083236e-01 
319 429.96 2.50865875e+02 2.95245200e-01 
320 430.77 2.57134918e+02 3.07922035e-01 
321 431.58 2.87134399e+02 3.17933500e-01 
322 432.38 3.18006317e+02 3.26266557e-01 
323 433.19 3.32280823e+02 3.60071987e-01 
324 433.99 3.39531342e+02 3.66961926e-01 
325 434.80 3.53941956e+02 3.71334612e-01 
326 435.60 3.75100128e+02 3.80034506e-01 
327 436.41 3.90144775e+02 3.75798732e-01 
328 437.21 3.91240601e+02 3.92553002e-01 
329 438.02 3.85855591e+02 3.94138843e-01 
330 438.82 3.88244537e+02 3.93759578e-01 
331 439.63 4.01175934e+02 3.89785320e-01 
332 440.43 4.18770599e+02 4.08211589e-01 
333 441.24 4.37207916e+02 4.23864305e-01 
334 442.04 4.54198975e+02 4.44018632e-01 
335 442.85 4.65569336e+02 4.57669586e-01 
336 443.65 4.72199219e+02 4.23795253e-01 
337 444.45 4.75294922e+02 4.40267146e-01 
338 445.26 4.74619568e+02 4.64235961e-01 
339 446.06 4.77500763e+02 4.53153223e-01 
340 446.87 4.89160004e+02 4.47815001e-01 
341 447.67 5.04103699e+02 4.66746747e-01 
342 448.48 5.14653931e+02 4.68125701e-01 
343 449.28 5.24278625e+02 4.99192923e-01 
344 450.09 5.35900818e+02 4.80752647e-01 
345 450.89 5.42939148e+02 4.92300302e-01 
346 451.70 5.37963318e+02 5.08541405e-01 
347 452.50 5.26135925e+02 4.72073168e-01 
348 453.30 5.20189636e+02 5.03687322e-01 
349 454.11 5.23442566e+02 5.08215547e-01 
350 454.91 5.31449463e+02 5.18476486e-01 
351 455.72 5.40071289e+02 4.82049346e-01 
352 456.52 5.47588989e+02 5.02307534e-01 
353 457.32 5.50486389e+02 4.89254177e-01 
354 458.13 5.48268494e+02 4.66674328e-01 
355 458.93 5.46187073e+02 5.15276015e-01 
356 459.74 5.48848206e+02 4.93724167e-01 
357 460.54 5.55830688e+02 5.07423580e-01 
358 461.34 5.63985291e+02 5.08920968e-01 
359 462.15 5.69169861e+02 5.10976493e-01 
360 462.95 5.69042786e+02 5.01284480e-01 
361 463.76 5.64621765e+02 4.83560294e-01 
362 464.56 5.60003357e+02 4.69876170e-01 
363 465.36 5.57316650e+02 5.06606162e-01 
364 466.17 5.55865295e+02 5.04908741e-01 
365 466.97 5.55820313e+02 4.97611582e-01 
366 467.77 5.58340576e+02 4.82468754e-01 
367 468.58 5.61629761e+02 4.99836028e-01 
368 469.38 5.61748230e+02 4.83155519e-01 
369 470.18 5.61278015e+02 4.98033762e-01 
370 470.99 5.66499634e+02 5.10628462e-01 
371 471.79 5.76016785e+02 4.93481010e-01 
372 472.59 5.83795898e+02 5.57607234e-01 
373 473.40 5.88512329e+02 5.28683126e-01 
374 474.20 5.92223572e+02 5.49264848e-01 
375 475.00 5.94972412e+02 5.45637190e-01 
376 475.81 5.96212952e+02 5.40172100e-01 
377 476.61 5.99366943e+02 5.15370607e-01 
378 477.41 6.05961792e+02 5.23883641e-01 
379 478.21 6.12165527e+02 5.40739357e-01 
380 479.02 6.15962952e+02 5.18798709e-01 
381 479.82 6.18329163e+02 5.68896532e-01 
382 480.62 6.21314636e+02 5.38037419e-01 
383 481.43 6.23157471e+02 5.57111621e-01 
384 482.23 6.22662231e+02 5.50403833e-01 
385 483.03 6.18659912e+02 5.58732748e-01 
386 483.84 6.09594910e+02 5.39028883e-01 
387 484.64 5.91022888e+02 5.35965145e-01 
388 485.44 5.66114014e+02 4.87688899e-01 
389 486.24 5.50454224e+02 4.68989789e-01 
390 487.04 5.54020630e+02 4.66216385e-01 
391 487.85 5.71814270e+02 4.85971183e-01 
392 488.65 5.91210266e+02 5.24318516e-01 
393 489.45 6.04828247e+02 5.05961716e-01 
394 490.26 6.10491882e+02 5.18767476e-01 
395 491.06 6.08477661e+02 5.33415258e-01 
396 491.86 6.03891541e+02 5.41962802e-01 
397 492.66 6.04282593e+02 5.44279099e-01 
398 493.46 6.11412720e+02 5.48524916e-01 
399 494.27 6.19410339e+02 5.46858609e-01 
400 495.07 6.23805237e+02 5.85234940e-01 
401 495.87 6.25557739e+02 5.67493498e-01 
402 496.67 6.23534607e+02 5.44365585e-01 
403 497.48 6.19110229e+02 5.53605855e-01 
404 498.28 6.14242126e+02 5.64807415e-01 
405 499.08 6.09113037e+02 5.70824623e-01 
406 499.88 6.03500122e+02 5.52807450e-01 
407 500.68 5.97860107e+02 5.31842709e-01 
408 501.48 5.95012390e+02 5.33553004e-01 
409 502.29 5.97829102e+02 5.39394975e-01 
410 503.09 6.02793640e+02 5.25737345e-01 
411 503.89 6.08265503e+02 5.32050788e-01 
412 504.69 6.14947144e+02 5.14940321e-01 
413 505.49 6.21136841e+02 5.49210489e-01 
414 506.29 6.22912659e+02 5.21176875e-01 
415 507.09 6.19439087e+02 5.13932824e-01 
416 507.90 6.15499023e+02 5.18313885e-01 
417 508.70 6.14568359e+02 5.30493975e-01 
418 509.50 6.15575867e+02 5.62940598e-01 
419 510.30 6.16789917e+02 5.55833817e-01 
420 511.10 6.16332764e+02 5.38612604e-01 
421 511.90 6.13011963e+02 5.71647823e-01 
422 512.71 6.06349182e+02 5.86987376e-01 
423 513.51 5.98734436e+02 5.47002554e-01 
424 514.31 5.93223755e+02 5.41618943e-01 
425 515.11 5.85263733e+02 5.44810951e-01 
426 515.91 5.70020264e+02 5.54910958e-01 
427 516.71 5.52666809e+02 5.27420342e-01 
428 517.51 5.42663086e+02 5.15894175e-01 
429 518.31 5.46424561e+02 4.96252388e-01 
430 519.11 5.60260376e+02 4.87257183e-01 
431 519.91 5.74371155e+02 5.03781676e-01 
432 520.71 5.84782959e+02 5.19506395e-01 
433 521.52 5.88948486e+02 5.33638597e-01 
434 522.32 5.90672119e+02 5.64036369e-01 
435 523.12 5.94412170e+02 5.23261428e-01 
436 523.92 5.99238220e+02 5.41673541e-01 
437 524.72 5.99990784e+02 5.40674448e-01 
438 525.52 5.91268372e+02 5.40960193e-01 
439 526.32 5.78844788e+02 5.15394151e-01 
440 527.12 5.75289185e+02 5.52215636e-01 
441 527.92 5.83605835e+02 5.50655544e-01 
442 528.72 5.97734802e+02 5.58458388e-01 
443 529.52 6.08908875e+02 5.79450727e-01 
444 530.32 6.13621033e+02 5.77352762e-01 
445 531.12 6.11473206e+02 5.62522292e-01 
446 531.92 6.04825745e+02 5.46484828e-01 
447 532.72 5.98083557e+02 5.78021884e-01 
448 533.52 5.96659424e+02 5.43749273e-01 
449 534.32 6.01399414e+02 5.33434987e-01 
450 535.12 6.06723938e+02 5.39324284e-01 
451 535.92 6.07659424e+02 5.48888803e-01 
452 536.72 6.05268494e+02 5.41875184e-01 
453 537.52 6.02124512e+02 5.46967626e-01 
454 538.32 5.98189392e+02 5.21551073e-01 
455 539.12 5.92574890e+02 5.71642518e-01 
456 539.92 5.86747559e+02 5.31420171e-01 
457 540.72 5.84411316e+02 5.33999145e-01 
458 541.52 5.86335632e+02 5.58789134e-01 
459 542.32 5.90724487e+02 5.72754264e-01 
460 543.12 5.94661255e+02 5.86682439e-01 
461 543.92 5.97554077e+02 5.75915217e-01 
462 544.72 5.99378357e+02 5.63028991e-01 
463 545.52 5.99061768e+02 5.45288742e-01 
464 546.32 5.96231750e+02 5.28628111e-01 
465 547.12 5.92533081e+02 5.37606657e-01 
466 547.91 5.90375732e+02 5.46580076e-01 
467 548.71 5.90260437e+02 5.17020822e-01 
