% C0 (TOA Count Rate, /ms) for 4STAR NIR spectrometer (512 channels) derived from 4STAR_20160918starsun.mat and recorded on 2017-06-26 14:43:58.
% Using the MLO from September 2016 high altitude AOD for stratospheric AOD component, calculating the c0 from the AOD at low airmass. 
Pix Wavelength C0 C0err
511 949.79 5.53758907e+00 2.77936697e-01 
510 949.79 5.65732288e+00 6.06055260e-01 
509 951.68 6.03762817e+00 6.84373379e-01 
508 953.57 6.07944202e+00 6.89915299e-01 
507 955.46 6.54988050e+00 7.58745730e-01 
506 957.34 6.63900185e+00 7.42082655e-01 
505 959.22 7.09635973e+00 8.21560383e-01 
504 961.10 7.17262316e+00 8.28674316e-01 
503 962.98 7.59847832e+00 8.77746463e-01 
502 964.85 7.58116722e+00 8.41143429e-01 
501 966.72 8.08240795e+00 9.23575401e-01 
500 968.59 8.09824848e+00 9.05434728e-01 
499 970.45 8.50760365e+00 9.66807663e-01 
498 972.32 8.46880341e+00 9.78451312e-01 
497 974.18 8.82124329e+00 1.01881742e+00 
496 976.04 8.73266220e+00 1.00935280e+00 
495 977.89 9.08038807e+00 1.02006757e+00 
494 979.74 8.96117687e+00 9.93988514e-01 
493 981.59 9.24927711e+00 1.06868875e+00 
492 983.44 9.11722851e+00 1.02704847e+00 
491 985.29 9.38177681e+00 1.08294415e+00 
490 987.13 9.16837788e+00 1.03641117e+00 
489 988.97 9.41729450e+00 1.06189704e+00 
488 990.81 9.22007942e+00 1.03798497e+00 
487 992.65 9.40616989e+00 1.05923009e+00 
486 994.48 9.20061684e+00 1.06342280e+00 
485 996.31 9.35721302e+00 1.04668391e+00 
484 998.14 9.12183857e+00 1.02196538e+00 
483 999.97 9.25955105e+00 1.05174124e+00 
482 1001.79 8.98067093e+00 1.03371656e+00 
481 1003.62 9.06012154e+00 1.04586101e+00 
480 1005.44 8.83288288e+00 1.02011621e+00 
479 1007.25 9.07126617e+00 1.04729915e+00 
478 1009.07 8.85892200e+00 9.80974674e-01 
477 1010.88 9.02022839e+00 1.04207444e+00 
476 1012.69 8.73948860e+00 1.00549746e+00 
475 1014.50 8.86413574e+00 1.01587093e+00 
474 1016.31 8.65039444e+00 9.95021820e-01 
473 1018.11 8.78207111e+00 1.01419520e+00 
472 1019.91 8.52859211e+00 9.67659354e-01 
471 1021.71 8.68650818e+00 9.66071248e-01 
470 1023.51 8.45180511e+00 9.75797653e-01 
469 1025.30 8.62590885e+00 9.59440053e-01 
468 1027.09 8.50024319e+00 9.81970191e-01 
467 1028.88 8.65912342e+00 9.67319727e-01 
466 1030.67 8.49876022e+00 9.81671453e-01 
465 1032.46 8.67489243e+00 1.00215542e+00 
464 1034.24 8.50965595e+00 9.79097307e-01 
463 1036.02 8.70479488e+00 1.00532341e+00 
462 1037.80 8.56849575e+00 9.88542557e-01 
461 1039.58 8.77903366e+00 1.01392341e+00 
460 1041.35 8.61924648e+00 9.89374697e-01 
459 1043.12 8.78794098e+00 9.81286705e-01 
458 1044.89 8.69192219e+00 9.86321092e-01 
457 1046.66 8.92609215e+00 1.01225758e+00 
456 1048.43 8.86952209e+00 1.02495933e+00 
455 1050.19 9.09511948e+00 1.04982328e+00 
454 1051.95 8.95129871e+00 9.93806422e-01 
453 1053.71 9.21224308e+00 1.06369817e+00 
452 1055.47 9.05360985e+00 1.01232398e+00 
451 1057.23 9.19895840e+00 1.06151581e+00 
450 1058.98 9.04633427e+00 1.04412162e+00 
449 1060.73 9.20764160e+00 1.06387663e+00 
448 1062.48 8.99998665e+00 1.01559520e+00 
447 1064.23 9.12412071e+00 1.03517413e+00 
446 1065.97 8.82804585e+00 1.02029717e+00 
445 1067.71 8.87502861e+00 1.02534246e+00 
444 1069.46 8.67570591e+00 1.00154471e+00 
443 1071.19 8.80904961e+00 9.52064514e-01 
442 1072.93 8.63149166e+00 9.98260975e-01 
441 1074.67 8.73640823e+00 9.94374633e-01 
440 1076.40 8.53266048e+00 9.86718833e-01 
439 1078.13 8.56674480e+00 9.50029492e-01 
438 1079.86 8.33324623e+00 9.43999887e-01 
437 1081.58 8.40867710e+00 9.68051672e-01 
436 1083.31 8.30311871e+00 9.37417090e-01 
435 1085.03 8.49205399e+00 9.79858100e-01 
434 1086.75 8.42470455e+00 9.52491045e-01 
433 1088.47 8.60188103e+00 9.71914113e-01 
432 1090.19 8.50234032e+00 9.82616842e-01 
431 1091.90 8.63746834e+00 9.80590582e-01 
430 1093.61 8.52190495e+00 9.84472513e-01 
429 1095.33 8.74559689e+00 1.00313079e+00 
428 1097.03 8.78972721e+00 9.76695776e-01 
427 1098.74 9.04825687e+00 1.04130113e+00 
426 1100.45 9.08416843e+00 1.04115534e+00 
425 1102.15 9.39005280e+00 1.07566082e+00 
424 1103.85 9.40962219e+00 1.08735371e+00 
423 1105.55 9.71381664e+00 1.06325638e+00 
422 1107.25 9.66140747e+00 1.09431660e+00 
421 1108.94 9.86823845e+00 1.14061844e+00 
420 1110.64 9.74308491e+00 1.06361580e+00 
419 1112.33 9.86496830e+00 1.14273775e+00 
418 1114.02 9.62403107e+00 1.11517227e+00 
417 1115.70 9.66919708e+00 1.11470962e+00 
416 1117.39 9.43187714e+00 1.09747684e+00 
415 1119.07 9.43929768e+00 1.10658789e+00 
414 1120.76 9.31465340e+00 1.06496894e+00 
413 1122.44 9.43922520e+00 1.11166370e+00 
412 1124.12 9.36036396e+00 1.07852948e+00 
411 1125.79 9.55366707e+00 1.12187409e+00 
410 1127.47 9.61147976e+00 1.10474205e+00 
409 1129.14 9.84067631e+00 1.12441504e+00 
408 1130.81 9.57409191e+00 1.12352014e+00 
407 1132.48 9.55744839e+00 1.09693336e+00 
406 1134.15 9.39034367e+00 1.10778213e+00 
405 1135.81 9.58631802e+00 1.11159658e+00 
404 1137.48 9.79523659e+00 1.13195741e+00 
403 1139.14 9.99765778e+00 1.15910947e+00 
402 1140.80 9.78484726e+00 1.10478568e+00 
401 1142.46 9.82312679e+00 1.12002695e+00 
400 1144.12 9.62441730e+00 1.09564722e+00 
399 1145.77 9.70033360e+00 1.13348186e+00 
398 1147.43 9.63451767e+00 1.12321854e+00 
397 1149.08 9.74498844e+00 1.13282645e+00 
396 1150.73 9.67451382e+00 1.10422182e+00 
395 1152.38 9.85126209e+00 1.14471173e+00 
394 1154.02 9.77287006e+00 1.08201933e+00 
393 1155.67 9.93440628e+00 1.15007532e+00 
392 1157.31 9.72923851e+00 1.11503696e+00 
391 1158.95 9.76929283e+00 1.12871480e+00 
390 1160.59 9.63984680e+00 1.10229397e+00 
389 1162.23 9.75000000e+00 1.12514114e+00 
388 1163.87 9.62184429e+00 1.10157824e+00 
387 1165.50 9.67821693e+00 1.11809218e+00 
386 1167.13 9.55734444e+00 1.08768845e+00 
385 1168.76 9.64826488e+00 1.07156491e+00 
384 1170.39 9.52337646e+00 1.10039306e+00 
383 1172.02 9.51021194e+00 1.07943451e+00 
382 1173.65 9.30989933e+00 1.07532775e+00 
381 1175.27 9.30877018e+00 1.03778350e+00 
380 1176.90 9.18566513e+00 1.03496933e+00 
379 1178.52 9.17247009e+00 1.04119694e+00 
378 1180.14 8.95355511e+00 1.02053571e+00 
377 1181.75 8.94511127e+00 1.03279018e+00 
376 1183.37 8.73776817e+00 1.00879419e+00 
375 1184.99 8.77215576e+00 9.93177116e-01 
374 1186.60 8.61266899e+00 9.96150911e-01 
373 1188.21 8.57131386e+00 9.55324888e-01 
372 1189.82 8.45544243e+00 9.58407819e-01 
371 1191.43 8.64708328e+00 9.99294400e-01 
370 1193.04 8.53412819e+00 9.79554772e-01 
369 1194.64 8.53774834e+00 9.72982585e-01 
368 1196.24 8.39245510e+00 9.36654627e-01 
367 1197.85 8.45084095e+00 9.52138484e-01 
366 1199.45 8.32508278e+00 9.62267041e-01 
365 1201.05 8.42025375e+00 9.72151577e-01 
364 1202.64 8.33691597e+00 9.32809114e-01 
363 1204.24 8.34783554e+00 9.56224799e-01 
362 1205.83 8.24105263e+00 9.51531053e-01 
361 1207.43 8.25472546e+00 9.33405221e-01 
360 1209.02 8.21427441e+00 9.43826616e-01 
359 1210.61 8.35512257e+00 9.44232583e-01 
358 1212.19 8.31958866e+00 9.48945582e-01 
357 1213.78 8.45238686e+00 9.75425601e-01 
356 1215.37 8.37633324e+00 9.44029927e-01 
355 1216.95 8.42593861e+00 9.71441031e-01 
354 1218.53 8.36780357e+00 9.61588144e-01 
353 1220.11 8.43761921e+00 9.72182512e-01 
352 1221.69 8.40822124e+00 9.56895590e-01 
351 1223.27 8.46209431e+00 9.54168558e-01 
350 1224.84 8.43056202e+00 9.73402143e-01 
349 1226.42 8.47147465e+00 9.49507058e-01 
348 1227.99 8.43146229e+00 9.74656880e-01 
347 1229.56 8.55889130e+00 9.87327635e-01 
346 1231.13 8.47229004e+00 9.59820271e-01 
345 1232.70 8.54714203e+00 9.83831942e-01 
344 1234.27 8.49141312e+00 9.75909829e-01 
343 1235.84 8.50337696e+00 9.47154641e-01 
342 1237.40 8.41944027e+00 9.54104006e-01 
341 1238.96 8.41259575e+00 9.71233726e-01 
340 1240.52 8.26886654e+00 9.51176286e-01 
339 1242.08 8.36992931e+00 9.65773702e-01 
338 1243.64 8.33963680e+00 9.63667631e-01 
337 1245.20 8.38413334e+00 9.68376458e-01 
336 1246.75 8.37645817e+00 9.43241894e-01 
335 1248.31 8.44917107e+00 9.75244701e-01 
334 1249.86 8.36136341e+00 9.43483531e-01 
333 1251.41 8.38344097e+00 9.63913441e-01 
332 1252.96 8.29815292e+00 9.47060943e-01 
331 1254.51 8.33030701e+00 9.62048471e-01 
330 1256.06 8.25480843e+00 9.25585747e-01 
329 1257.61 8.21486282e+00 9.46734667e-01 
328 1259.15 8.11046314e+00 9.30972934e-01 
327 1260.69 8.07283306e+00 9.18221891e-01 
326 1262.23 7.94104242e+00 9.01897907e-01 
325 1263.77 7.93390894e+00 8.89916480e-01 
324 1265.31 7.77743101e+00 8.98543119e-01 
323 1266.85 7.82610035e+00 8.56974244e-01 
322 1268.39 7.88366413e+00 9.10480380e-01 
321 1269.92 7.99996519e+00 9.22585428e-01 
320 1271.46 8.14158440e+00 9.15895879e-01 
319 1272.99 8.18164635e+00 9.33071733e-01 
318 1274.52 8.16145039e+00 9.42614436e-01 
317 1276.05 8.23228168e+00 9.43977118e-01 
316 1277.58 8.09910107e+00 9.11869764e-01 
315 1279.10 7.95069742e+00 9.07217801e-01 
314 1280.63 7.91693497e+00 9.15006340e-01 
313 1282.15 7.91963720e+00 8.76727700e-01 
312 1283.68 8.01646996e+00 9.25558209e-01 
311 1285.20 8.17693138e+00 9.43647444e-01 
310 1286.72 8.15220642e+00 9.05289590e-01 
309 1288.24 8.18107128e+00 9.39745009e-01 
308 1289.75 8.05648327e+00 9.20005798e-01 
307 1291.27 8.07246780e+00 9.32159662e-01 
306 1292.78 8.11104965e+00 9.28403974e-01 
305 1294.30 8.11315441e+00 9.37933624e-01 
304 1295.81 8.05393314e+00 8.97927880e-01 
303 1297.32 8.06517315e+00 9.08867955e-01 
302 1298.83 8.01348400e+00 9.15363789e-01 
301 1300.34 7.98851967e+00 9.13628519e-01 
300 1301.85 7.93500376e+00 9.16689396e-01 
299 1303.35 7.89962578e+00 8.84918690e-01 
298 1304.86 7.82126570e+00 8.70072961e-01 
297 1306.36 7.83614683e+00 9.04829979e-01 
296 1307.86 7.76046181e+00 8.87032747e-01 
295 1309.36 7.66512728e+00 8.72547328e-01 
294 1310.86 7.59636211e+00 8.76707852e-01 
293 1312.36 7.53525734e+00 8.22349906e-01 
292 1313.86 7.48863316e+00 8.65169108e-01 
291 1315.36 7.49414873e+00 8.65122020e-01 
290 1316.85 7.45907736e+00 8.55526745e-01 
289 1318.34 7.43301153e+00 8.54767978e-01 
288 1319.84 7.40268373e+00 8.29884171e-01 
287 1321.33 7.41142750e+00 8.56509805e-01 
286 1322.82 7.34629488e+00 8.16136837e-01 
285 1324.30 7.37355137e+00 8.34727705e-01 
284 1325.79 7.25902462e+00 8.34225893e-01 
283 1327.28 7.17017651e+00 8.29322219e-01 
282 1328.76 7.04780579e+00 8.04237008e-01 
281 1330.25 7.00317764e+00 8.09576690e-01 
280 1331.73 6.94995260e+00 7.61506021e-01 
279 1333.21 6.96054697e+00 8.06049943e-01 
278 1334.69 6.93847179e+00 7.80551016e-01 
277 1336.17 6.88856697e+00 7.80435503e-01 
276 1337.65 6.84206820e+00 7.91831076e-01 
275 1339.12 6.76111650e+00 7.83914983e-01 
274 1340.60 6.71647310e+00 7.41182029e-01 
273 1342.07 6.67728090e+00 7.73986042e-01 
272 1343.55 6.55166197e+00 7.60340989e-01 
271 1345.02 6.28875542e+00 7.34863877e-01 
270 1346.49 6.07909393e+00 6.80507123e-01 
269 1347.96 5.85999203e+00 7.09864616e-01 
268 1349.43 5.59052563e+00 6.89514816e-01 
267 1350.89 5.33593941e+00 6.69746637e-01 
266 1352.36 4.92934561e+00 6.37118757e-01 
265 1353.82 4.65265894e+00 6.20557964e-01 
264 1355.29 4.39469814e+00 5.91201544e-01 
263 1356.75 4.21970558e+00 6.08758867e-01 
262 1358.21 3.89949560e+00 5.94371855e-01 
261 1359.67 3.63362122e+00 5.68576574e-01 
260 1361.13 3.44967103e+00 5.62518358e-01 
259 1362.59 3.39649534e+00 5.46147287e-01 
258 1364.04 3.50123239e+00 5.53715765e-01 
257 1365.50 3.47991705e+00 5.50030529e-01 
256 1366.95 3.47738457e+00 5.19704580e-01 
255 1368.41 3.38925290e+00 5.22274971e-01 
254 1369.86 3.40166855e+00 5.24341941e-01 
253 1371.31 3.50952244e+00 5.13936102e-01 
252 1372.76 3.47693920e+00 4.54244971e-01 
251 1374.21 3.48070455e+00 4.64870453e-01 
250 1375.65 3.30203223e+00 4.25546974e-01 
249 1377.10 3.00591612e+00 3.93109888e-01 
248 1378.55 2.66773295e+00 3.58655423e-01 
247 1379.99 2.32987928e+00 3.51176858e-01 
246 1381.43 2.19687557e+00 3.32429409e-01 
245 1382.87 2.25052214e+00 3.53249997e-01 
244 1384.32 2.40951324e+00 3.60720664e-01 
243 1385.75 2.62744212e+00 3.75379592e-01 
242 1387.19 2.86104345e+00 3.84756446e-01 
241 1388.63 2.93668509e+00 3.65143150e-01 
240 1390.07 2.98756003e+00 3.94208431e-01 
239 1391.50 2.99177265e+00 4.00931805e-01 
238 1392.94 2.77495384e+00 3.60890925e-01 
237 1394.37 2.85425472e+00 4.05140817e-01 
236 1395.80 3.02060390e+00 4.17082787e-01 
235 1397.23 2.96091628e+00 4.14882869e-01 
234 1398.66 3.12199998e+00 3.82188082e-01 
233 1400.09 3.26104856e+00 4.39134151e-01 
232 1401.52 3.18042922e+00 4.42368835e-01 
231 1402.94 3.35496545e+00 4.53279942e-01 
230 1404.37 3.44175768e+00 4.42730576e-01 
229 1405.79 3.37566519e+00 4.61055368e-01 
228 1407.22 3.46328640e+00 4.51661378e-01 
227 1408.64 3.60345078e+00 4.74088639e-01 
226 1410.06 3.75751042e+00 4.65987921e-01 
225 1411.48 3.76518106e+00 4.84369099e-01 
224 1412.90 3.88813996e+00 4.59920347e-01 
223 1414.32 3.94999981e+00 4.81868088e-01 
222 1415.73 3.94628906e+00 4.97664452e-01 
221 1417.15 4.02012587e+00 5.05061269e-01 
220 1418.56 4.12049103e+00 5.13582587e-01 
219 1419.98 4.08757162e+00 5.11452615e-01 
218 1421.39 4.15330076e+00 5.14632761e-01 
217 1422.80 4.22803736e+00 5.13883233e-01 
216 1424.21 4.25590229e+00 5.11183083e-01 
215 1425.62 4.24961948e+00 5.14881790e-01 
214 1427.03 4.28589773e+00 5.03593743e-01 
213 1428.44 4.11510849e+00 4.79031920e-01 
212 1429.84 3.97718835e+00 4.59933877e-01 
211 1431.25 3.92014956e+00 4.68498766e-01 
210 1432.65 3.88197684e+00 4.57230926e-01 
209 1434.06 3.94534898e+00 4.51541126e-01 
208 1435.46 4.04462576e+00 4.83189106e-01 
207 1436.86 4.05037069e+00 4.82836425e-01 
206 1438.26 4.08146191e+00 4.86912459e-01 
205 1439.66 4.09189367e+00 4.73570555e-01 
204 1441.05 4.19642878e+00 4.74251688e-01 
203 1442.45 4.13735962e+00 4.68628019e-01 
202 1443.85 4.17071772e+00 4.94964659e-01 
201 1445.24 4.23552036e+00 4.78609741e-01 
200 1446.64 4.27799988e+00 4.87264365e-01 
199 1448.03 4.26179647e+00 5.05287826e-01 
198 1449.42 4.33926344e+00 4.78728056e-01 
197 1450.81 4.32550764e+00 5.10375381e-01 
196 1452.20 4.32775879e+00 4.87891674e-01 
195 1453.59 4.41541004e+00 5.15252650e-01 
194 1454.97 4.51058006e+00 5.04667521e-01 
193 1456.36 4.48468399e+00 5.21094739e-01 
192 1457.75 4.51654959e+00 5.12200296e-01 
191 1459.13 4.46984434e+00 5.17794788e-01 
190 1460.51 4.45837498e+00 5.13319433e-01 
189 1461.90 4.36448812e+00 4.52969104e-01 
188 1463.28 4.34085512e+00 5.03231168e-01 
187 1464.66 4.27177000e+00 5.00311494e-01 
186 1466.04 4.30325365e+00 5.03292084e-01 
185 1467.41 4.21839476e+00 4.94842738e-01 
184 1468.79 4.17807627e+00 4.66873527e-01 
183 1470.17 4.12503242e+00 4.80027705e-01 
182 1471.54 4.15720892e+00 4.51763541e-01 
181 1472.92 4.17923117e+00 4.89640176e-01 
180 1474.29 4.25498343e+00 4.83413756e-01 
179 1475.66 4.24058962e+00 4.84042287e-01 
178 1477.03 4.20311165e+00 4.66573775e-01 
177 1478.40 4.18184042e+00 4.88360733e-01 
176 1479.77 4.21233606e+00 4.81430233e-01 
175 1481.14 4.19900465e+00 4.74876255e-01 
174 1482.51 4.26846075e+00 4.97756720e-01 
173 1483.87 4.21121693e+00 4.90825474e-01 
172 1485.24 4.17457819e+00 4.65490758e-01 
171 1486.60 4.12042761e+00 4.53025788e-01 
170 1487.96 4.14817572e+00 4.81885225e-01 
169 1489.32 4.11115932e+00 4.56823677e-01 
168 1490.68 4.23265553e+00 4.67913002e-01 
167 1492.04 4.21518278e+00 4.87457216e-01 
166 1493.40 4.24073744e+00 4.57027435e-01 
165 1494.76 4.19869423e+00 4.85213399e-01 
164 1496.12 4.22831964e+00 4.89908963e-01 
163 1497.47 4.20341349e+00 4.59933996e-01 
162 1498.83 4.26180506e+00 4.93590742e-01 
161 1500.18 4.11784363e+00 4.41477329e-01 
160 1501.53 4.04595184e+00 4.63251203e-01 
159 1502.89 3.93556857e+00 4.43991631e-01 
158 1504.24 3.95067406e+00 4.01920110e-01 
157 1505.59 3.97315693e+00 4.60084379e-01 
156 1506.93 4.08193445e+00 4.48958099e-01 
155 1508.28 4.10230303e+00 4.55917090e-01 
154 1509.63 4.13253689e+00 4.50952351e-01 
153 1510.97 4.08210373e+00 4.52712983e-01 
152 1512.32 4.12424898e+00 4.60285157e-01 
151 1513.66 4.04630041e+00 4.41315413e-01 
150 1515.00 4.07329655e+00 4.65168864e-01 
149 1516.34 4.04597092e+00 4.67635125e-01 
148 1517.69 4.06095362e+00 4.67275709e-01 
147 1519.02 4.00571966e+00 4.63179946e-01 
146 1520.36 4.01732922e+00 4.51671720e-01 
145 1521.70 3.96880150e+00 4.58335787e-01 
144 1523.04 4.03130007e+00 4.35258955e-01 
143 1524.37 3.98364902e+00 4.48074162e-01 
142 1525.71 4.03051853e+00 4.47329938e-01 
141 1527.04 3.95297909e+00 4.56691653e-01 
140 1528.37 3.98543620e+00 4.47190523e-01 
139 1529.70 3.91293788e+00 4.25354838e-01 
138 1531.03 3.93375850e+00 4.46381509e-01 
137 1532.36 3.86710095e+00 4.44071472e-01 
136 1533.69 3.90896797e+00 4.36067760e-01 
135 1535.02 3.82849336e+00 4.37329859e-01 
134 1536.34 3.86067104e+00 4.14274454e-01 
133 1537.67 3.78612018e+00 4.36545342e-01 
132 1538.99 3.82990575e+00 4.16655213e-01 
131 1540.31 3.76423764e+00 4.35208946e-01 
130 1541.64 3.81605744e+00 3.84647638e-01 
129 1542.96 3.78126001e+00 4.36003208e-01 
128 1544.28 3.83034825e+00 4.36329126e-01 
127 1545.60 3.74506044e+00 4.31382090e-01 
126 1546.91 3.78342724e+00 4.37414318e-01 
125 1548.23 3.68572569e+00 4.26604629e-01 
124 1549.55 3.70657587e+00 4.28875238e-01 
123 1550.86 3.63336468e+00 3.99857998e-01 
122 1552.18 3.65870452e+00 4.02687937e-01 
121 1553.49 3.60608506e+00 4.15693402e-01 
120 1554.80 3.65028262e+00 4.08852518e-01 
119 1556.11 3.57722497e+00 4.14232165e-01 
118 1557.42 3.61904693e+00 4.10604596e-01 
117 1558.73 3.55049753e+00 4.11343962e-01 
116 1560.04 3.57521892e+00 3.95567179e-01 
115 1561.34 3.49043512e+00 3.92298698e-01 
114 1562.65 3.54603839e+00 3.89526427e-01 
113 1563.95 3.46874976e+00 4.00577784e-01 
112 1565.26 3.52448177e+00 4.07765597e-01 
111 1566.56 3.40958238e+00 3.77647042e-01 
110 1567.86 3.42692184e+00 3.96262318e-01 
109 1569.16 3.32402110e+00 3.85043919e-01 
108 1570.46 3.31710243e+00 3.31161797e-01 
107 1571.76 3.22402716e+00 3.71827871e-01 
106 1573.05 3.20964217e+00 3.22799474e-01 
105 1574.35 3.10087252e+00 3.58545750e-01 
104 1575.64 3.13236403e+00 2.95681417e-01 
103 1576.94 3.08420444e+00 3.56405079e-01 
102 1578.23 3.15622997e+00 3.48213822e-01 
101 1579.52 3.12459826e+00 3.57815117e-01 
100 1580.81 3.18912983e+00 3.52936864e-01 
99 1582.10 3.13176823e+00 3.52767259e-01 
98 1583.39 3.19789410e+00 3.61157358e-01 
97 1584.68 3.13080621e+00 3.61570030e-01 
96 1585.97 3.11729002e+00 3.19513828e-01 
95 1587.25 3.00377035e+00 3.47363830e-01 
94 1588.54 3.02259874e+00 3.47042501e-01 
93 1589.82 2.96500111e+00 3.31713468e-01 
92 1591.10 3.05410624e+00 3.39589894e-01 
91 1592.38 3.03074265e+00 3.18025500e-01 
90 1593.66 3.09424973e+00 3.38424414e-01 
89 1594.94 3.01511526e+00 3.49266112e-01 
88 1596.22 3.04997516e+00 3.33288252e-01 
87 1597.50 2.95735288e+00 3.41808349e-01 
86 1598.77 2.98421597e+00 3.06726575e-01 
85 1600.05 2.88217330e+00 3.32575589e-01 
84 1601.32 2.91035056e+00 3.33979517e-01 
83 1602.59 2.83239746e+00 3.12673301e-01 
82 1603.86 2.89396620e+00 3.35239738e-01 
81 1605.13 2.78495026e+00 2.82533288e-01 
80 1606.40 2.84505773e+00 3.09463948e-01 
79 1607.67 2.73912621e+00 3.14956546e-01 
78 1608.94 2.78703952e+00 3.04227620e-01 
77 1610.20 2.71747470e+00 3.06857347e-01 
76 1611.47 2.77890444e+00 3.07852566e-01 
75 1612.73 2.70254064e+00 3.00705045e-01 
74 1614.00 2.74810338e+00 2.94187009e-01 
73 1615.26 2.66905689e+00 3.08346272e-01 
72 1616.52 2.68507385e+00 3.00546110e-01 
71 1617.78 2.58338666e+00 2.79527336e-01 
70 1619.03 2.62188292e+00 2.94984430e-01 
69 1620.29 2.56813931e+00 2.90233195e-01 
68 1621.55 2.62717414e+00 2.98350781e-01 
67 1622.80 2.56188965e+00 2.94434309e-01 
66 1624.06 2.62187195e+00 3.03709954e-01 
65 1625.31 2.53476167e+00 2.58251101e-01 
64 1626.56 2.58669639e+00 3.00187379e-01 
63 1627.81 2.49161386e+00 2.85938382e-01 
62 1629.06 2.52284956e+00 2.61344165e-01 
61 1630.31 2.43483377e+00 2.80522257e-01 
60 1631.56 2.46335554e+00 2.47790441e-01 
59 1632.80 2.36572909e+00 2.67736375e-01 
58 1634.05 2.40093303e+00 2.75989234e-01 
57 1635.29 2.28652143e+00 2.39661813e-01 
56 1636.53 2.28961635e+00 2.64972657e-01 
55 1637.77 2.17380619e+00 2.41469294e-01 
54 1639.01 2.19263101e+00 2.30729893e-01 
53 1640.25 2.11080360e+00 2.44123459e-01 
