% C0 (TOA Count Rate, /ms) for 4STAR NIR spectrometer (512 channels) derived from (SEE Original files for sources) and recorded on 2017-06-27 01:25:25.
% Langley at MLO and airborne Data outside 2.0x the STD of 501 nm Langley residuals were screened out. 
% Including high Altitude rate spectra, matched to splined stratospheric AOD measured at MLO.
% Averages of c0 from multiple days including: , MLO -av-g-, infl-ig-ht, high- a-lt, infl-ig-ht, high- a-lt. See the list of files below
% 20161115_NIR_C0_refined_Langley_Nov2016part1.5incl1115_good_mean.dat
% 20160924_NIR_C0_refined_Langley_airborne_ORACLES_v1.dat
% 20160927_NIR_C0_refined_high_alt_low_m.dat
% 20160824_NIR_C0_refined_langley_4STAR.dat
% 20160927_NIR_C0_refined_high_alt_low_m_fromBonanza_loglogquad.dat
Pix Wavelength C0 C0err
511 949.79 5.10066800e+00 8.42125071e-01 
510 949.79 5.35172692e+00 7.50103089e-01 
509 951.68 5.73164451e+00 7.55099276e-01 
508 953.57 5.79121906e+00 7.26137591e-01 
507 955.46 6.24749698e+00 7.14326369e-01 
506 957.34 6.34617195e+00 6.70065959e-01 
505 959.22 6.82939387e+00 6.27189460e-01 
504 961.10 6.91342975e+00 5.32105813e-01 
503 962.98 7.35981203e+00 4.65294888e-01 
502 964.85 7.37465432e+00 3.62929844e-01 
501 966.72 7.90443720e+00 2.77625851e-01 
500 968.59 7.95337664e+00 1.91894790e-01 
499 970.45 8.34627455e+00 1.66069684e-01 
498 972.32 8.30640580e+00 2.07952247e-01 
497 974.18 8.63430036e+00 2.19157036e-01 
496 976.04 8.56625083e+00 1.93635980e-01 
495 977.89 8.91624776e+00 1.43425012e-01 
494 979.74 8.83275034e+00 7.99836648e-02 
493 981.59 9.14056132e+00 5.38082034e-02 
492 983.44 9.03694244e+00 7.76669648e-02 
491 985.29 9.28709224e+00 1.04239823e-01 
490 987.13 9.09680178e+00 1.31840028e-01 
489 988.97 9.33531211e+00 1.62238870e-01 
488 990.81 9.15626740e+00 1.42948974e-01 
487 992.65 9.33806329e+00 1.64993175e-01 
486 994.48 9.14169218e+00 1.56607048e-01 
485 996.31 9.28051729e+00 1.54989623e-01 
484 998.14 9.04486049e+00 1.41315496e-01 
483 999.97 9.19012535e+00 1.58034599e-01 
482 1001.79 8.91142575e+00 1.53411843e-01 
481 1003.62 8.98332774e+00 1.63437126e-01 
480 1005.44 8.78313785e+00 1.57998142e-01 
479 1007.25 9.02029241e+00 1.69434054e-01 
478 1009.07 8.80875033e+00 1.66352216e-01 
477 1010.88 8.96283712e+00 1.76079185e-01 
476 1012.69 8.69968352e+00 1.61473509e-01 
475 1014.50 8.82361774e+00 1.47994489e-01 
474 1016.31 8.59953017e+00 1.38462187e-01 
473 1018.11 8.74080343e+00 1.52689230e-01 
472 1019.91 8.49079539e+00 1.60591995e-01 
471 1021.71 8.65076273e+00 1.63961154e-01 
470 1023.51 8.42133869e+00 1.61313072e-01 
469 1025.30 8.57853669e+00 1.63169739e-01 
468 1027.09 8.46903297e+00 1.50687201e-01 
467 1028.88 8.61076621e+00 1.63281999e-01 
466 1030.67 8.46400432e+00 1.47614811e-01 
465 1032.46 8.63562180e+00 1.59018300e-01 
464 1034.24 8.47066629e+00 1.52232478e-01 
463 1036.02 8.67109805e+00 1.52909036e-01 
462 1037.80 8.53814000e+00 1.69860815e-01 
461 1039.58 8.74652781e+00 1.74797728e-01 
460 1041.35 8.59858118e+00 1.66808408e-01 
459 1043.12 8.76157374e+00 1.58733453e-01 
458 1044.89 8.67766038e+00 1.75440906e-01 
457 1046.66 8.89277947e+00 1.90735867e-01 
456 1048.43 8.84104839e+00 1.73310448e-01 
455 1050.19 9.06967143e+00 1.76049057e-01 
454 1051.95 8.94444013e+00 1.78496690e-01 
453 1053.71 9.19797942e+00 1.79979672e-01 
452 1055.47 9.02826992e+00 1.72348473e-01 
451 1057.23 9.15500588e+00 1.65547109e-01 
450 1058.98 9.00514825e+00 1.42401085e-01 
449 1060.73 9.17346891e+00 1.57040536e-01 
448 1062.48 8.96270909e+00 1.66389813e-01 
447 1064.23 9.09580445e+00 1.68786622e-01 
446 1065.97 8.81501336e+00 1.71705614e-01 
445 1067.71 8.85639317e+00 1.82157005e-01 
444 1069.46 8.66176126e+00 1.70357840e-01 
443 1071.19 8.77473481e+00 1.51922870e-01 
442 1072.93 8.62512966e+00 1.50132712e-01 
441 1074.67 8.70667934e+00 1.44806003e-01 
440 1076.40 8.50317363e+00 1.34120868e-01 
439 1078.13 8.52643210e+00 1.46816651e-01 
438 1079.86 8.29314246e+00 1.16100735e-01 
437 1081.58 8.36387713e+00 1.16061924e-01 
436 1083.31 8.24500099e+00 9.57534823e-02 
435 1085.03 8.42432264e+00 8.84061009e-02 
434 1086.75 8.36493053e+00 6.86780758e-02 
433 1088.47 8.52292331e+00 7.05132947e-02 
432 1090.19 8.42371123e+00 5.53735205e-02 
431 1091.90 8.52815312e+00 5.63762861e-02 
430 1093.61 8.40510351e+00 5.37866775e-02 
429 1095.33 8.61461435e+00 6.34502258e-02 
428 1097.03 8.63420738e+00 9.55211287e-02 
427 1098.74 8.87335393e+00 1.47820497e-01 
426 1100.45 8.89556845e+00 1.79077445e-01 
425 1102.15 9.18069200e+00 2.21349083e-01 
424 1103.85 9.19020005e+00 2.42404793e-01 
423 1105.55 9.43834384e+00 2.90521654e-01 
422 1107.25 9.35629790e+00 3.85768519e-01 
421 1108.94 9.50481466e+00 5.44708553e-01 
420 1110.64 9.28276437e+00 7.69443233e-01 
419 1112.33 9.26934912e+00 1.17217292e+00 
418 1114.02 8.91069546e+00 1.62971344e+00 
417 1115.70 8.89547576e+00 1.95369435e+00 
416 1117.39 8.62831161e+00 2.11984937e+00 
415 1119.07 8.62061097e+00 2.31348504e+00 
414 1120.76 8.49211372e+00 2.41653235e+00 
413 1122.44 8.55760499e+00 2.61323097e+00 
412 1124.12 8.49095907e+00 2.57375833e+00 
411 1125.79 8.65559278e+00 2.48048947e+00 
410 1127.47 8.74693612e+00 2.19235972e+00 
409 1129.14 9.03895254e+00 1.97242336e+00 
408 1130.81 8.71963791e+00 2.27596835e+00 
407 1132.48 8.66682901e+00 2.46352199e+00 
406 1134.15 8.53086676e+00 2.43246999e+00 
405 1135.81 8.79537881e+00 2.00941699e+00 
404 1137.48 9.16062800e+00 1.40682043e+00 
403 1139.14 9.39826714e+00 1.27303803e+00 
402 1140.80 9.13920151e+00 1.44604702e+00 
401 1142.46 9.09261537e+00 1.75067799e+00 
400 1144.12 8.81568266e+00 1.90499960e+00 
399 1145.77 8.86781671e+00 1.99141867e+00 
398 1147.43 8.84233263e+00 1.83994631e+00 
397 1149.08 9.02781437e+00 1.63600918e+00 
396 1150.73 8.99761436e+00 1.57126702e+00 
395 1152.38 9.22857152e+00 1.39357199e+00 
394 1154.02 9.20076683e+00 1.21466154e+00 
393 1155.67 9.41986245e+00 9.97414912e-01 
392 1157.31 9.30336299e+00 8.29948679e-01 
391 1158.95 9.38169607e+00 6.64481585e-01 
390 1160.59 9.33252427e+00 4.99386405e-01 
389 1162.23 9.48146491e+00 3.96432219e-01 
388 1163.87 9.38491238e+00 3.16217167e-01 
387 1165.50 9.43981121e+00 2.78220405e-01 
386 1167.13 9.34264599e+00 2.30431390e-01 
385 1168.76 9.44548818e+00 1.68322710e-01 
384 1170.39 9.32931106e+00 1.97205588e-01 
383 1172.02 9.31847838e+00 1.79655727e-01 
382 1173.65 9.12501616e+00 1.93314313e-01 
381 1175.27 9.11820472e+00 1.97635462e-01 
380 1176.90 8.99992514e+00 1.60876076e-01 
379 1178.52 8.94237997e+00 2.46346925e-01 
378 1180.14 8.72908056e+00 2.32251953e-01 
377 1181.75 8.71469769e+00 2.67628222e-01 
376 1183.37 8.54655487e+00 2.45733128e-01 
375 1184.99 8.55252055e+00 2.39067508e-01 
374 1186.60 8.43802517e+00 1.91530987e-01 
373 1188.21 8.40321112e+00 1.42892555e-01 
372 1189.82 8.32279055e+00 1.09060841e-01 
371 1191.43 8.51361304e+00 9.84005011e-02 
370 1193.04 8.41392461e+00 8.40315252e-02 
369 1194.64 8.40101966e+00 1.00691842e-01 
368 1196.24 8.23719745e+00 1.10228283e-01 
367 1197.85 8.29065502e+00 1.15553273e-01 
366 1199.45 8.16595744e+00 1.38372507e-01 
365 1201.05 8.24706433e+00 1.31307547e-01 
364 1202.64 8.16774352e+00 1.32062717e-01 
363 1204.24 8.20686349e+00 1.09351142e-01 
362 1205.83 8.13932210e+00 1.02526403e-01 
361 1207.43 8.15564249e+00 9.40408834e-02 
360 1209.02 8.10009127e+00 7.86963513e-02 
359 1210.61 8.22759293e+00 7.18136671e-02 
358 1212.19 8.20638925e+00 6.34066826e-02 
357 1213.78 8.34972540e+00 6.58696172e-02 
356 1215.37 8.29065433e+00 5.55040280e-02 
355 1216.95 8.34923481e+00 6.44290902e-02 
354 1218.53 8.30667121e+00 7.74617610e-02 
353 1220.11 8.35776888e+00 8.96645148e-02 
352 1221.69 8.33252814e+00 6.75016669e-02 
351 1223.27 8.36819904e+00 7.40555288e-02 
350 1224.84 8.35828575e+00 7.92483419e-02 
349 1226.42 8.39617614e+00 1.02265980e-01 
348 1227.99 8.37525623e+00 1.00265086e-01 
347 1229.56 8.50577100e+00 1.03009167e-01 
346 1231.13 8.42451395e+00 1.05072318e-01 
345 1232.70 8.48293031e+00 1.21455610e-01 
344 1234.27 8.44417004e+00 1.31791579e-01 
343 1235.84 8.45412924e+00 1.29584536e-01 
342 1237.40 8.38114234e+00 1.51234395e-01 
341 1238.96 8.37946785e+00 1.72568767e-01 
340 1240.52 8.22756886e+00 1.63160517e-01 
339 1242.08 8.34456639e+00 1.78808656e-01 
338 1243.64 8.31801314e+00 1.58505568e-01 
337 1245.20 8.34407772e+00 1.63254170e-01 
336 1246.75 8.31739917e+00 1.28388919e-01 
335 1248.31 8.39225410e+00 1.33852424e-01 
334 1249.86 8.31101645e+00 1.30819994e-01 
333 1251.41 8.35041865e+00 1.46275938e-01 
332 1252.96 8.25358509e+00 1.41690876e-01 
331 1254.51 8.30071974e+00 1.31666581e-01 
330 1256.06 8.23113609e+00 1.20381387e-01 
329 1257.61 8.20375322e+00 1.24441393e-01 
328 1259.15 8.11081865e+00 1.39102172e-01 
327 1260.69 8.08766517e+00 1.44749615e-01 
326 1262.23 7.98710572e+00 1.67948329e-01 
325 1263.77 7.98359322e+00 1.69261973e-01 
324 1265.31 7.86648398e+00 2.02473432e-01 
323 1266.85 7.90659039e+00 2.09953441e-01 
322 1268.39 7.92059622e+00 1.85028501e-01 
321 1269.92 8.02649861e+00 1.57138639e-01 
320 1271.46 8.14456607e+00 1.23861131e-01 
319 1272.99 8.15593921e+00 1.17477860e-01 
318 1274.52 8.14093552e+00 1.22640025e-01 
317 1276.05 8.18769956e+00 1.16889469e-01 
316 1277.58 8.03780721e+00 1.06580022e-01 
315 1279.10 7.88708485e+00 1.07325105e-01 
314 1280.63 7.84170307e+00 1.13579148e-01 
313 1282.15 7.83362293e+00 1.20089591e-01 
312 1283.68 7.93897107e+00 1.13215498e-01 
311 1285.20 8.08539448e+00 1.22459951e-01 
310 1286.72 8.06581478e+00 1.07757604e-01 
309 1288.24 8.08168266e+00 9.78064710e-02 
308 1289.75 7.97640544e+00 1.11955432e-01 
307 1291.27 7.99343134e+00 1.06264625e-01 
306 1292.78 8.03480673e+00 9.39383164e-02 
305 1294.30 8.03822468e+00 8.00105535e-02 
304 1295.81 7.96254709e+00 7.60325836e-02 
303 1297.32 7.94531956e+00 6.69699403e-02 
302 1298.83 7.88709183e+00 6.50712917e-02 
301 1300.34 7.83591971e+00 6.28108503e-02 
300 1301.85 7.78247117e+00 8.11004220e-02 
299 1303.35 7.73891288e+00 1.17974820e-01 
298 1304.86 7.66469637e+00 1.51457691e-01 
297 1306.36 7.64937835e+00 1.63441962e-01 
296 1307.86 7.58437802e+00 1.75745262e-01 
295 1309.36 7.49409440e+00 1.90391886e-01 
294 1310.86 7.40270864e+00 2.43277669e-01 
293 1312.36 7.33106851e+00 2.37482821e-01 
292 1313.86 7.28449356e+00 2.69882562e-01 
291 1315.36 7.27220649e+00 2.86598397e-01 
290 1316.85 7.21129118e+00 3.33426288e-01 
289 1318.34 7.16643932e+00 3.53645876e-01 
288 1319.84 7.11088822e+00 4.11477550e-01 
287 1321.33 7.14056998e+00 4.04166714e-01 
286 1322.82 7.08498826e+00 3.76692501e-01 
285 1324.30 7.08751496e+00 4.41842158e-01 
284 1325.79 6.96019704e+00 5.09970190e-01 
283 1327.28 6.82724534e+00 6.30741169e-01 
282 1328.76 6.63546679e+00 8.03556606e-01 
281 1330.25 6.56767131e+00 8.87416315e-01 
280 1331.73 6.50092781e+00 8.91004147e-01 
279 1333.21 6.50938048e+00 8.83764364e-01 
278 1334.69 6.51035951e+00 8.54682305e-01 
277 1336.17 6.45633765e+00 7.95452385e-01 
276 1337.65 6.38780746e+00 8.38738967e-01 
275 1339.12 6.31745456e+00 7.91588415e-01 
274 1340.60 6.23824752e+00 9.39047724e-01 
273 1342.07 6.14315229e+00 1.09756643e+00 
272 1343.55 5.97859930e+00 1.29544285e+00 
271 1345.02 5.62978139e+00 1.70584176e+00 
270 1346.49 5.41150736e+00 1.93384143e+00 
269 1347.96 5.18598342e+00 2.27091213e+00 
268 1349.43 4.93063086e+00 2.55688440e+00 
267 1350.89 4.71208745e+00 2.81666539e+00 
266 1352.36 4.46061335e+00 3.30016795e+00 
265 1353.82 4.29478374e+00 3.45706327e+00 
264 1355.29 4.21667159e+00 3.93492892e+00 
263 1356.75 4.24613158e+00 4.17364882e+00 
262 1358.21 4.21423194e+00 4.67239783e+00 
261 1359.67 4.22100802e+00 5.20233952e+00 
260 1361.13 4.26498657e+00 5.53812646e+00 
259 1362.59 4.13035591e+00 5.27357618e+00 
258 1364.04 4.02874227e+00 4.82163144e+00 
257 1365.50 4.05934218e+00 4.88308653e+00 
256 1366.95 3.98455610e+00 4.89268738e+00 
255 1368.41 4.01727296e+00 5.06733053e+00 
254 1369.86 3.94550364e+00 4.80387000e+00 
253 1371.31 3.67598943e+00 3.93798724e+00 
252 1372.76 3.44049057e+00 3.47578219e+00 
251 1374.21 3.27300513e+00 2.82840383e+00 
250 1375.65 3.03643328e+00 2.48243722e+00 
249 1377.10 2.78135552e+00 2.28896798e+00 
248 1378.55 2.55478572e+00 2.34490572e+00 
247 1379.99 2.38060287e+00 2.43271118e+00 
246 1381.43 2.45005326e+00 2.92181334e+00 
245 1382.87 2.55487863e+00 2.99791797e+00 
244 1384.32 2.52314865e+00 2.72035273e+00 
243 1385.75 2.59695117e+00 2.46443849e+00 
242 1387.19 2.65959055e+00 2.12626834e+00 
241 1388.63 2.63152688e+00 1.95769312e+00 
240 1390.07 2.72692627e+00 1.96920419e+00 
239 1391.50 2.75960195e+00 2.11751095e+00 
238 1392.94 2.69775177e+00 2.57633387e+00 
237 1394.37 2.78906758e+00 2.55244909e+00 
236 1395.80 2.86535809e+00 2.45538761e+00 
235 1397.23 2.88423309e+00 2.56076190e+00 
234 1398.66 2.90989982e+00 2.50762832e+00 
233 1400.09 3.03841729e+00 2.42203538e+00 
232 1401.52 3.06467696e+00 2.70127724e+00 
231 1402.94 3.16020385e+00 2.56295281e+00 
230 1404.37 3.17459788e+00 2.54195033e+00 
229 1405.79 3.20100069e+00 2.59212797e+00 
228 1407.22 3.20152149e+00 2.58765226e+00 
227 1408.64 3.30071534e+00 2.41906459e+00 
226 1410.06 3.34481026e+00 2.32981746e+00 
225 1411.48 3.38658828e+00 2.26575421e+00 
224 1412.90 3.41251580e+00 2.16709035e+00 
223 1414.32 3.49599069e+00 1.99156191e+00 
222 1415.73 3.53721987e+00 2.11832483e+00 
221 1417.15 3.57850833e+00 2.09953624e+00 
220 1418.56 3.65829568e+00 2.03268721e+00 
219 1419.98 3.64087446e+00 2.06384195e+00 
218 1421.39 3.69943793e+00 1.91639996e+00 
217 1422.80 3.75950116e+00 1.71005261e+00 
216 1424.21 3.78893823e+00 1.69433451e+00 
215 1425.62 3.76661434e+00 1.68847596e+00 
214 1427.03 3.80031872e+00 1.56077169e+00 
213 1428.44 3.64725313e+00 1.48117698e+00 
212 1429.84 3.55975200e+00 1.50235802e+00 
211 1431.25 3.50793744e+00 1.33984596e+00 
210 1432.65 3.50633727e+00 1.38052644e+00 
209 1434.06 3.55113678e+00 1.43715585e+00 
208 1435.46 3.63061349e+00 1.42773082e+00 
207 1436.86 3.65721757e+00 1.39658359e+00 
206 1438.26 3.66695092e+00 1.37510847e+00 
205 1439.66 3.69985935e+00 1.33073336e+00 
204 1441.05 3.79153580e+00 1.24372148e+00 
203 1442.45 3.72922518e+00 1.26592726e+00 
202 1443.85 3.75239925e+00 1.28596942e+00 
201 1445.24 3.80702981e+00 1.17987460e+00 
200 1446.64 3.84575531e+00 1.21353865e+00 
199 1448.03 3.80732145e+00 1.29497010e+00 
198 1449.42 3.87361954e+00 1.24596726e+00 
197 1450.81 3.87787999e+00 1.18360003e+00 
196 1452.20 3.88159381e+00 1.09951770e+00 
195 1453.59 4.02578217e+00 8.50186613e-01 
194 1454.97 4.17461382e+00 7.05928921e-01 
193 1456.36 4.17705839e+00 6.53944713e-01 
192 1457.75 4.22675517e+00 6.78383161e-01 
191 1459.13 4.17969747e+00 6.87211256e-01 
190 1460.51 4.15087887e+00 7.73263164e-01 
189 1461.90 4.03387749e+00 8.34001512e-01 
188 1463.28 4.01345203e+00 9.27089370e-01 
187 1464.66 3.92029912e+00 9.73575530e-01 
186 1466.04 3.93761750e+00 9.94260450e-01 
185 1467.41 3.83149436e+00 1.12039182e+00 
184 1468.79 3.77243012e+00 1.16456061e+00 
183 1470.17 3.71821207e+00 1.12906025e+00 
182 1471.54 3.76433771e+00 1.07873493e+00 
181 1472.92 3.82587838e+00 9.49605929e-01 
180 1474.29 3.91379709e+00 8.59661747e-01 
179 1475.66 3.91021856e+00 7.90577558e-01 
178 1477.03 3.86550157e+00 8.49434399e-01 
177 1478.40 3.83441067e+00 8.93998316e-01 
176 1479.77 3.89562085e+00 8.42196314e-01 
175 1481.14 3.87292860e+00 7.60214406e-01 
174 1482.51 3.96323474e+00 7.04390961e-01 
173 1483.87 3.91830509e+00 6.67624850e-01 
172 1485.24 3.86912705e+00 6.43198650e-01 
171 1486.60 3.82951888e+00 5.94228335e-01 
170 1487.96 3.89854118e+00 5.39769342e-01 
169 1489.32 3.88664946e+00 4.37103222e-01 
168 1490.68 4.05088810e+00 3.73525031e-01 
167 1492.04 4.03081029e+00 3.38163309e-01 
166 1493.40 4.06677811e+00 3.33198942e-01 
165 1494.76 4.04158154e+00 3.06677470e-01 
164 1496.12 4.08769844e+00 2.70472278e-01 
163 1497.47 4.05204044e+00 2.12610842e-01 
162 1498.83 4.13766904e+00 1.79294628e-01 
161 1500.18 3.99035110e+00 1.61654157e-01 
160 1501.53 3.92043726e+00 1.86885451e-01 
159 1502.89 3.80369192e+00 1.82456824e-01 
158 1504.24 3.83491781e+00 1.83680856e-01 
157 1505.59 3.85518533e+00 1.74976392e-01 
156 1506.93 3.98083624e+00 1.33715940e-01 
155 1508.28 4.01254680e+00 1.11223886e-01 
154 1509.63 4.04391087e+00 1.00609725e-01 
153 1510.97 3.99474536e+00 7.91209092e-02 
152 1512.32 4.05049342e+00 7.14440928e-02 
151 1513.66 3.97071530e+00 7.21469321e-02 
150 1515.00 4.01130315e+00 6.25186009e-02 
149 1516.34 3.97567947e+00 5.52799534e-02 
148 1517.69 4.00211060e+00 6.39669590e-02 
147 1519.02 3.94753904e+00 5.74951751e-02 
146 1520.36 3.96344219e+00 5.45420647e-02 
145 1521.70 3.92489312e+00 5.30994525e-02 
144 1523.04 3.99012751e+00 5.40445738e-02 
143 1524.37 3.94340923e+00 6.10953801e-02 
142 1525.71 3.98834586e+00 5.76664967e-02 
141 1527.04 3.91102527e+00 6.29979941e-02 
140 1528.37 3.94233420e+00 4.99469301e-02 
139 1529.70 3.87602370e+00 4.12036892e-02 
138 1531.03 3.90601578e+00 5.18541929e-02 
137 1532.36 3.85550280e+00 4.76785852e-02 
136 1533.69 3.89025466e+00 5.02313467e-02 
135 1535.02 3.81373888e+00 5.87426515e-02 
134 1536.34 3.83798827e+00 5.26036378e-02 
133 1537.67 3.76645115e+00 6.69107819e-02 
132 1538.99 3.81043697e+00 4.26727475e-02 
131 1540.31 3.74457777e+00 5.29944600e-02 
130 1541.64 3.78835302e+00 6.00125654e-02 
129 1542.96 3.75186579e+00 4.85113774e-02 
128 1544.28 3.79576882e+00 4.77226469e-02 
127 1545.60 3.71542821e+00 6.37029270e-02 
126 1546.91 3.75810084e+00 5.59751570e-02 
125 1548.23 3.66279275e+00 6.42087189e-02 
124 1549.55 3.68891479e+00 6.12703353e-02 
123 1550.86 3.61113906e+00 6.73575654e-02 
122 1552.18 3.63390598e+00 6.01093663e-02 
121 1553.49 3.56520114e+00 7.96855667e-02 
120 1554.80 3.61939677e+00 5.92655510e-02 
119 1556.11 3.55287643e+00 5.91874453e-02 
118 1557.42 3.59991478e+00 5.74752067e-02 
117 1558.73 3.52958276e+00 5.56062613e-02 
116 1560.04 3.55142694e+00 3.95382027e-02 
115 1561.34 3.47114168e+00 4.52788583e-02 
114 1562.65 3.51916266e+00 3.64155207e-02 
113 1563.95 3.44525200e+00 5.01234357e-02 
112 1565.26 3.49893356e+00 4.41191158e-02 
111 1566.56 3.38766395e+00 5.55570144e-02 
110 1567.86 3.41398129e+00 5.44573675e-02 
109 1569.16 3.31874016e+00 5.63495446e-02 
108 1570.46 3.32496256e+00 6.30096728e-02 
107 1571.76 3.22860198e+00 6.44640129e-02 
106 1573.05 3.20983015e+00 5.70279140e-02 
105 1574.35 3.09985154e+00 5.92541618e-02 
104 1575.64 3.11993431e+00 5.95310852e-02 
103 1576.94 3.07807256e+00 5.36902489e-02 
102 1578.23 3.15192614e+00 5.39693710e-02 
101 1579.52 3.11230236e+00 4.68717580e-02 
100 1580.81 3.17167080e+00 3.72350670e-02 
99 1582.10 3.10552356e+00 3.39106490e-02 
98 1583.39 3.17053755e+00 3.23041991e-02 
97 1584.68 3.09024243e+00 3.00595876e-02 
96 1585.97 3.09639550e+00 3.45775901e-02 
95 1587.25 2.98919629e+00 3.82783898e-02 
94 1588.54 2.99297315e+00 3.74229934e-02 
93 1589.82 2.93624221e+00 4.33039133e-02 
92 1591.10 3.03798639e+00 4.31285951e-02 
91 1592.38 2.99906771e+00 4.68774026e-02 
90 1593.66 3.06693198e+00 3.21197255e-02 
89 1594.94 2.99696606e+00 2.44508283e-02 
88 1596.22 3.02041900e+00 1.99164866e-02 
87 1597.50 2.93099981e+00 2.04217761e-02 
86 1598.77 2.95965361e+00 2.97307346e-02 
85 1600.05 2.86332483e+00 2.95413266e-02 
84 1601.32 2.89972689e+00 3.94086261e-02 
83 1602.59 2.80652828e+00 4.04127211e-02 
82 1603.86 2.88169824e+00 4.38326441e-02 
81 1605.13 2.75935849e+00 3.33839016e-02 
80 1606.40 2.81533020e+00 3.78530770e-02 
79 1607.67 2.71728529e+00 3.32606398e-02 
78 1608.94 2.76488142e+00 3.32375051e-02 
77 1610.20 2.70277496e+00 2.85430399e-02 
76 1611.47 2.75600642e+00 2.92211814e-02 
75 1612.73 2.68605393e+00 2.89959224e-02 
74 1614.00 2.73304021e+00 3.46828705e-02 
73 1615.26 2.64691809e+00 5.15296290e-02 
72 1616.52 2.66940033e+00 5.05743379e-02 
71 1617.78 2.57460807e+00 5.61199170e-02 
70 1619.03 2.61008181e+00 2.95117189e-02 
69 1620.29 2.54299426e+00 5.33055607e-02 
68 1621.55 2.61870683e+00 2.12932557e-02 
67 1622.80 2.54542546e+00 3.19775824e-02 
66 1624.06 2.61482475e+00 3.57258195e-02 
65 1625.31 2.51441456e+00 3.73141991e-02 
64 1626.56 2.57469081e+00 3.14487310e-02 
