% C0 (TOA Count Rate, /ms) for 4STAR VIS spectrometer (1044 channels) derived from 20160825starsun.mat and recorded on 2016-09-02 17:52:39.
% Data outside 2.0x the STD of 501 nm Langley residuals were screened out.
Pix Wavelength C0 C0err
0 173.18 -1.00000000e+00 -1.00000000e+00 
1 173.97 3.27585191e+02 9.82755572e+00 
2 174.77 3.60326132e+02 1.08097840e+01 
3 175.56 1.24615985e+03 3.73847956e+01 
4 176.36 3.85673439e+04 1.15702032e+03 
5 177.15 4.70606940e+04 1.41182082e+03 
6 177.94 5.58547077e+04 1.67564123e+03 
7 178.74 6.48868920e+04 1.94660676e+03 
8 179.53 7.22956942e+04 2.16887083e+03 
9 180.33 8.20010841e+04 2.46003252e+03 
10 181.12 9.53586753e+04 2.86076026e+03 
11 181.92 1.11759778e+05 3.35279333e+03 
12 182.71 1.33221191e+05 3.99663572e+03 
13 183.51 1.54379978e+05 4.63139933e+03 
14 184.30 1.85299623e+05 5.55898868e+03 
15 185.10 2.20504463e+05 6.61513390e+03 
16 185.89 2.68381291e+05 8.05143874e+03 
17 186.69 3.18398668e+05 9.55196004e+03 
18 187.49 3.61388279e+05 1.08416484e+04 
19 188.28 4.43364189e+05 1.33009257e+04 
20 189.08 5.48133816e+05 1.64440145e+04 
21 189.88 6.69687124e+05 2.00906137e+04 
22 190.67 8.72462830e+05 2.61738849e+04 
23 191.47 1.07682398e+06 3.23047194e+04 
24 192.27 1.29127942e+06 3.87383825e+04 
25 193.07 1.66334105e+06 4.99002315e+04 
26 193.86 2.12803134e+06 6.38409402e+04 
27 194.66 2.72994648e+06 8.18983944e+04 
28 195.46 3.53455687e+06 1.06036706e+05 
29 196.26 4.69553902e+06 1.40866170e+05 
30 197.05 6.34074057e+06 1.90222217e+05 
31 197.85 8.76970888e+06 2.63091266e+05 
32 198.65 1.19619089e+07 3.58857267e+05 
33 199.45 1.69098656e+07 5.07295968e+05 
34 200.25 2.46728567e+07 7.40185700e+05 
35 201.05 2.98273513e+07 8.94820538e+05 
36 201.85 3.44703459e+07 1.03411038e+06 
37 202.64 3.20158678e+07 9.60476034e+05 
38 203.44 4.18538106e+07 1.25561432e+06 
39 204.24 3.33465179e+07 1.00039554e+06 
40 205.04 2.32081122e+07 6.96243365e+05 
41 205.84 1.61062572e+07 4.83187716e+05 
42 206.64 1.13459186e+07 3.40377559e+05 
43 207.44 7.80836243e+06 2.34250873e+05 
44 208.24 5.43617481e+06 1.63085244e+05 
45 209.04 3.81291788e+06 1.14387536e+05 
46 209.84 2.65831331e+06 7.97493992e+04 
47 210.64 1.85022303e+06 5.55066910e+04 
48 211.44 1.30451694e+06 3.91355083e+04 
49 212.24 8.85390413e+05 2.65617124e+04 
50 213.05 6.19310201e+05 1.85793060e+04 
51 213.85 4.42686564e+05 1.32805969e+04 
52 214.65 3.03105294e+05 9.09315883e+03 
53 215.45 2.09840286e+05 6.29520858e+03 
54 216.25 1.45724690e+05 4.37174069e+03 
55 217.05 1.02728105e+05 3.08184314e+03 
56 217.85 7.07809484e+04 2.12342845e+03 
57 218.65 4.90242973e+04 1.47072892e+03 
58 219.46 3.50161252e+04 1.05048376e+03 
59 220.26 2.44357972e+04 7.33073917e+02 
60 221.06 1.68252771e+04 5.04758314e+02 
61 221.86 1.15778621e+04 3.47335864e+02 
62 222.66 8.28814195e+03 2.48644258e+02 
63 223.47 5.76707430e+03 1.73012229e+02 
64 224.27 4.00093265e+03 1.20027979e+02 
65 225.07 2.78537740e+03 8.35613221e+01 
66 225.87 1.95088277e+03 5.85264830e+01 
67 226.68 1.35552267e+03 4.06656801e+01 
68 227.48 9.32473911e+02 2.79742173e+01 
69 228.28 6.88161842e+02 2.06448552e+01 
70 229.09 5.32193450e+02 1.59658035e+01 
71 229.89 4.47448972e+02 1.34234692e+01 
72 230.69 4.44272866e+02 1.33281860e+01 
73 231.49 5.18615189e+02 1.55584557e+01 
74 232.30 7.00794561e+02 2.10238368e+01 
75 233.10 1.00607188e+03 3.01821563e+01 
76 233.91 1.48897424e+03 4.46692273e+01 
77 234.71 2.29329742e+03 6.87989225e+01 
78 235.51 3.49528085e+03 1.04858426e+02 
79 236.32 5.32755238e+03 1.59826572e+02 
80 237.12 8.24694543e+03 2.47408363e+02 
81 237.92 1.26672537e+04 3.80017610e+02 
82 238.73 1.96541588e+04 5.89624765e+02 
83 239.53 3.04958720e+04 9.14876160e+02 
84 240.34 4.70535711e+04 1.41160713e+03 
85 241.14 7.00059553e+04 2.10017866e+03 
86 241.94 1.06952516e+05 3.20857549e+03 
87 242.75 1.55033541e+05 4.65100622e+03 
88 243.55 2.28437112e+05 6.85311336e+03 
89 244.36 3.33746854e+05 1.00124056e+04 
90 245.16 4.66228610e+05 1.39868583e+04 
91 245.97 6.44142956e+05 1.93242887e+04 
92 246.77 8.54108408e+05 2.56232522e+04 
93 247.58 1.12586773e+06 3.37760320e+04 
94 248.38 1.43964251e+06 4.31892754e+04 
95 249.19 1.87919847e+06 5.63759540e+04 
96 249.99 2.27519558e+06 6.82558673e+04 
97 250.80 2.65498404e+06 7.96495212e+04 
98 251.60 3.01363096e+06 9.04089288e+04 
99 252.41 3.35199402e+06 1.00559821e+05 
100 253.21 3.72046890e+06 1.11614067e+05 
101 254.02 3.90672574e+06 1.17201772e+05 
102 254.83 4.08064733e+06 1.22419420e+05 
103 255.63 4.06117579e+06 1.21835274e+05 
104 256.44 3.78598217e+06 1.13579465e+05 
105 257.24 3.38713867e+06 1.01614160e+05 
106 258.05 3.10619533e+06 9.31858599e+04 
107 258.85 2.76572929e+06 8.29718786e+04 
108 259.66 2.26928531e+06 6.80785592e+04 
109 260.46 1.80860647e+06 5.42581941e+04 
110 261.27 1.40347897e+06 4.21043690e+04 
111 262.08 1.07493022e+06 3.22479067e+04 
112 262.88 7.87935118e+05 2.36380535e+04 
113 263.69 5.80540124e+05 1.74162037e+04 
114 264.50 4.10545675e+05 1.23163703e+04 
115 265.30 2.93390193e+05 8.80170579e+03 
116 266.11 2.00231574e+05 6.00694723e+03 
117 266.91 1.34240546e+05 4.02721637e+03 
118 267.72 8.59920180e+04 2.57976054e+03 
119 268.53 5.55416271e+04 1.66624881e+03 
120 269.33 3.53958520e+04 1.06187556e+03 
121 270.14 2.28128672e+04 6.84386016e+02 
122 270.95 1.50762330e+04 4.52286989e+02 
123 271.75 9.40074630e+03 2.82022389e+02 
124 272.56 6.03067934e+03 1.80920380e+02 
125 273.37 3.73386845e+03 1.12016054e+02 
126 274.17 2.29927676e+03 6.89783028e+01 
127 274.98 1.47528304e+03 4.42584913e+01 
128 275.79 9.39838192e+02 2.81951458e+01 
129 276.59 6.14964804e+02 1.84489441e+01 
130 277.40 4.08784174e+02 1.22635252e+01 
131 278.21 2.66087626e+02 7.98262877e+00 
132 279.01 1.75531161e+02 5.26593483e+00 
133 279.82 1.15057048e+02 3.45171144e+00 
134 280.63 7.76921231e+01 2.33076369e+00 
135 281.44 5.44827548e+01 1.63448264e+00 
136 282.24 3.73149940e+01 1.11944982e+00 
137 283.05 2.73075743e+01 8.19227230e-01 
138 283.86 2.00262912e+01 6.00788735e-01 
139 284.66 1.47618554e+01 4.42855661e-01 
140 285.47 1.10650716e+01 3.31952149e-01 
141 286.28 8.65043544e+00 2.59513063e-01 
142 287.09 6.80996205e+00 2.04298862e-01 
143 287.89 5.27752104e+00 1.58325631e-01 
144 288.70 4.19423773e+00 1.25827132e-01 
145 289.51 3.44787611e+00 1.03436283e-01 
146 290.32 2.89271176e+00 8.67813528e-02 
147 291.12 2.45902980e+00 7.37708941e-02 
148 291.93 2.07173040e+00 6.21519119e-02 
149 292.74 1.73520993e+00 5.20562978e-02 
150 293.55 1.56828805e+00 4.70486415e-02 
151 294.35 1.38640634e+00 4.15921902e-02 
152 295.16 1.22591332e+00 3.67773995e-02 
153 295.97 1.13143250e+00 3.39429749e-02 
154 296.78 1.01086170e+00 3.03258509e-02 
155 297.58 9.25489042e-01 2.77646713e-02 
156 298.39 8.61349163e-01 2.58404749e-02 
157 299.20 7.94813765e-01 2.38444129e-02 
158 300.01 7.55566650e-01 2.26669995e-02 
159 300.81 7.06368206e-01 2.11910462e-02 
160 301.62 6.78309842e-01 2.03492953e-02 
161 302.43 6.42806566e-01 1.92841970e-02 
162 303.24 6.32850858e-01 1.89855258e-02 
163 304.05 6.16825946e-01 1.85047784e-02 
164 304.85 6.00183919e-01 1.80055176e-02 
165 305.66 5.80013716e-01 1.74004115e-02 
166 306.47 5.71822655e-01 1.71546796e-02 
167 307.28 5.61162129e-01 1.68348639e-02 
168 308.08 5.55060534e-01 1.66518160e-02 
169 308.89 5.52379222e-01 1.65713767e-02 
170 309.70 5.30007152e-01 1.59002145e-02 
171 310.51 5.28955012e-01 1.58686503e-02 
172 311.32 5.26669610e-01 1.58000883e-02 
173 312.12 5.22822054e-01 1.56846616e-02 
174 312.93 5.35391771e-01 1.60617531e-02 
175 313.74 5.35934181e-01 1.60780254e-02 
176 314.55 5.37466485e-01 1.61239946e-02 
177 315.36 5.34228102e-01 1.60268431e-02 
178 316.16 5.40932544e-01 1.62279763e-02 
179 316.97 5.42227437e-01 1.62668231e-02 
180 317.78 5.59278413e-01 1.67783524e-02 
181 318.59 5.68063333e-01 1.70419000e-02 
182 319.39 5.84304111e-01 1.75291233e-02 
183 320.20 5.94177787e-01 1.78253336e-02 
184 321.01 6.06989933e-01 1.82096980e-02 
185 321.82 6.26250821e-01 1.87875246e-02 
186 322.63 6.51218164e-01 1.95365449e-02 
187 323.43 6.68631937e-01 2.00589581e-02 
188 324.24 6.80818763e-01 2.04245629e-02 
189 325.05 7.01510412e-01 2.10453124e-02 
190 325.86 7.15684447e-01 2.14705334e-02 
191 326.67 7.52049573e-01 2.25614872e-02 
192 327.48 7.80407931e-01 2.34122379e-02 
193 328.28 8.25125131e-01 2.47537539e-02 
194 329.09 8.49688597e-01 2.54906579e-02 
195 329.90 8.83794650e-01 2.65138395e-02 
196 330.71 9.40556997e-01 2.82167099e-02 
197 331.51 1.02836665e+00 3.08509995e-02 
198 332.32 1.16956224e+00 3.50868671e-02 
199 333.13 1.45883271e+00 4.37649814e-02 
200 333.94 1.97772429e+00 5.93317287e-02 
201 334.75 2.80082962e+00 8.40248886e-02 
202 335.56 3.96119316e+00 1.18835795e-01 
203 336.36 5.50701294e+00 1.65210388e-01 
204 337.17 7.99065056e+00 2.39719517e-01 
205 337.98 1.13790906e+01 3.41372719e-01 
206 338.79 1.53911305e+01 4.61733916e-01 
207 339.59 1.98568232e+01 5.95704695e-01 
208 340.40 2.37637418e+01 7.12912255e-01 
209 341.21 2.69759408e+01 8.09278225e-01 
210 342.02 3.07540138e+01 9.22620414e-01 
211 342.83 3.41174442e+01 1.02352333e+00 
212 343.64 3.49393809e+01 1.04818143e+00 
213 344.44 3.60255956e+01 1.08076787e+00 
214 345.25 3.99417459e+01 1.19825238e+00 
215 346.06 4.36957781e+01 1.31087334e+00 
216 346.87 4.61199176e+01 1.38359753e+00 
217 347.67 4.77758018e+01 1.43327405e+00 
218 348.48 4.93330443e+01 1.47999133e+00 
219 349.29 5.21761709e+01 1.56528513e+00 
220 350.10 5.71888951e+01 1.71566685e+00 
221 350.91 6.07007371e+01 1.82102211e+00 
222 351.71 6.08713935e+01 1.82614180e+00 
223 352.52 6.18682768e+01 1.85604830e+00 
224 353.33 6.72282875e+01 2.01684862e+00 
225 354.14 7.41104865e+01 2.22331459e+00 
226 354.94 7.72307608e+01 2.31692283e+00 
227 355.75 7.58584080e+01 2.27575224e+00 
228 356.56 7.14308680e+01 2.14292604e+00 
229 357.37 6.70217576e+01 2.01065273e+00 
230 358.18 6.59587370e+01 1.97876211e+00 
231 358.98 7.37756387e+01 2.21326916e+00 
232 359.79 8.52000187e+01 2.55600056e+00 
233 360.60 8.68872122e+01 2.60661637e+00 
234 361.41 8.54079633e+01 2.56223890e+00 
235 362.21 8.99051807e+01 2.69715542e+00 
236 363.02 9.52356884e+01 2.85707065e+00 
237 363.83 9.84019173e+01 2.95205752e+00 
238 364.64 1.03065442e+02 3.09196327e+00 
239 365.44 1.12217449e+02 3.36652346e+00 
240 366.25 1.20391107e+02 3.61173322e+00 
241 367.06 1.21510237e+02 3.64530712e+00 
242 367.87 1.19612441e+02 3.58837323e+00 
243 368.67 1.21102398e+02 3.63307194e+00 
244 369.48 1.26213649e+02 3.78640947e+00 
245 370.29 1.27464509e+02 3.82393526e+00 
246 371.10 1.25959963e+02 3.77879888e+00 
247 371.90 1.22745118e+02 3.68235354e+00 
248 372.71 1.16019065e+02 3.48057194e+00 
249 373.52 1.09466410e+02 3.28399229e+00 
250 374.33 1.08646343e+02 3.25939029e+00 
251 375.13 1.16023087e+02 3.48069261e+00 
252 375.94 1.26344564e+02 3.79033691e+00 
253 376.75 1.37433812e+02 4.12301437e+00 
254 377.55 1.50319982e+02 4.50959945e+00 
255 378.36 1.54172298e+02 4.62516893e+00 
256 379.17 1.46429850e+02 4.39289550e+00 
257 379.98 1.42795555e+02 4.28386665e+00 
258 380.78 1.42531890e+02 4.27595669e+00 
259 381.59 1.30413999e+02 3.91241998e+00 
260 382.40 1.11101178e+02 3.33303533e+00 
261 383.21 1.01776252e+02 3.05328755e+00 
262 384.01 1.10001737e+02 3.30005210e+00 
263 384.82 1.24458608e+02 3.73375824e+00 
264 385.63 1.30795310e+02 3.92385931e+00 
265 386.43 1.31928200e+02 3.95784601e+00 
266 387.24 1.32789179e+02 3.98367538e+00 
267 388.05 1.34804468e+02 4.04413403e+00 
268 388.85 1.42718552e+02 4.28155656e+00 
269 389.66 1.55920339e+02 4.67761018e+00 
270 390.47 1.66653799e+02 4.99961397e+00 
271 391.27 1.67623473e+02 5.02870420e+00 
272 392.08 1.49980676e+02 4.49942027e+00 
273 392.89 1.21927359e+02 3.65782076e+00 
274 393.69 1.14537086e+02 3.43611257e+00 
275 394.50 1.35994303e+02 4.07982908e+00 
276 395.31 1.52581931e+02 4.57745793e+00 
277 396.11 1.42906080e+02 4.28718239e+00 
278 396.92 1.34912358e+02 4.04737074e+00 
279 397.73 1.58268429e+02 4.74805287e+00 
280 398.53 1.95345282e+02 5.86035846e+00 
281 399.34 2.19252729e+02 6.57758187e+00 
282 400.15 2.30793142e+02 6.92379426e+00 
283 400.95 2.38652391e+02 7.15957172e+00 
284 401.76 2.44926898e+02 7.34780695e+00 
285 402.57 2.46840717e+02 7.40522151e+00 
286 403.37 2.45372752e+02 7.36118257e+00 
287 404.18 2.44122088e+02 7.32366263e+00 
288 404.98 2.43038949e+02 7.29116846e+00 
289 405.79 2.41913541e+02 7.25740624e+00 
290 406.60 2.42679231e+02 7.28037693e+00 
291 407.40 2.48550346e+02 7.45651038e+00 
292 408.21 2.57820727e+02 7.73462180e+00 
293 409.02 2.61605548e+02 7.84816644e+00 
294 409.82 2.58699301e+02 7.76097904e+00 
295 410.63 2.61383594e+02 7.84150783e+00 
296 411.44 2.72378073e+02 8.17134219e+00 
297 412.24 2.80019823e+02 8.40059468e+00 
298 413.05 2.80891204e+02 8.42673612e+00 
299 413.85 2.80422349e+02 8.41267048e+00 
300 414.66 2.80548646e+02 8.41645938e+00 
301 415.46 2.81228517e+02 8.43685550e+00 
302 416.27 2.81031360e+02 8.43094080e+00 
303 417.08 2.77243716e+02 8.31731147e+00 
304 417.88 2.72024998e+02 8.16074995e+00 
305 418.69 2.69315187e+02 8.07945560e+00 
306 419.49 2.69436064e+02 8.08308192e+00 
307 420.30 2.72303824e+02 8.16911473e+00 
308 421.11 2.74792689e+02 8.24378068e+00 
309 421.91 2.72337169e+02 8.17011507e+00 
310 422.72 2.67434036e+02 8.02302107e+00 
311 423.52 2.66654187e+02 7.99962562e+00 
312 424.33 2.69257273e+02 8.07771819e+00 
313 425.13 2.70974260e+02 8.12922779e+00 
314 425.94 2.70947305e+02 8.12841916e+00 
315 426.74 2.70442614e+02 8.11327841e+00 
316 427.55 2.69937167e+02 8.09811500e+00 
317 428.35 2.66630473e+02 7.99891418e+00 
318 429.16 2.56578092e+02 7.69734277e+00 
319 429.96 2.45930333e+02 7.37791000e+00 
320 430.77 2.52366585e+02 7.57099756e+00 
321 431.58 2.78770563e+02 8.36311690e+00 
322 432.38 3.06888978e+02 9.20666934e+00 
323 433.19 3.21313828e+02 9.63941485e+00 
324 433.99 3.29350944e+02 9.88052833e+00 
325 434.80 3.43068965e+02 1.02920689e+01 
326 435.60 3.62109853e+02 1.08632956e+01 
327 436.41 3.75630070e+02 1.12689021e+01 
328 437.21 3.76823414e+02 1.13047024e+01 
329 438.02 3.72806564e+02 1.11841969e+01 
330 438.82 3.75131632e+02 1.12539490e+01 
331 439.63 3.86570907e+02 1.15971272e+01 
332 440.43 4.03539349e+02 1.21061805e+01 
333 441.24 4.21150376e+02 1.26345113e+01 
334 442.04 4.37105135e+02 1.31131541e+01 
335 442.84 4.48574662e+02 1.34572399e+01 
336 443.65 4.55382320e+02 1.36614696e+01 
337 444.45 4.58075742e+02 1.37422723e+01 
338 445.26 4.58170678e+02 1.37451203e+01 
339 446.06 4.62070906e+02 1.38621272e+01 
340 446.87 4.72787671e+02 1.41836301e+01 
341 447.67 4.86683811e+02 1.46005143e+01 
342 448.48 4.97895917e+02 1.49368775e+01 
343 449.28 5.08210423e+02 1.52463127e+01 
344 450.09 5.19347070e+02 1.55804121e+01 
345 450.89 5.25979179e+02 1.57793754e+01 
346 451.69 5.22042670e+02 1.56612801e+01 
347 452.50 5.12466727e+02 1.53740018e+01 
348 453.30 5.07591872e+02 1.52277562e+01 
349 454.11 5.10279365e+02 1.53083810e+01 
350 454.91 5.18385675e+02 1.55515703e+01 
351 455.72 5.27333761e+02 1.58200128e+01 
352 456.52 5.34823846e+02 1.60447154e+01 
353 457.32 5.38308992e+02 1.61492698e+01 
354 458.13 5.37531399e+02 1.61259420e+01 
355 458.93 5.36718340e+02 1.61015502e+01 
356 459.74 5.40077802e+02 1.62023341e+01 
357 460.54 5.47333998e+02 1.64200199e+01 
358 461.34 5.55487331e+02 1.66646199e+01 
359 462.15 5.61010188e+02 1.68303056e+01 
360 462.95 5.61345352e+02 1.68403605e+01 
361 463.76 5.57866680e+02 1.67360004e+01 
362 464.56 5.54176128e+02 1.66252838e+01 
363 465.36 5.51585392e+02 1.65475618e+01 
364 466.17 5.50505700e+02 1.65151710e+01 
365 466.97 5.51506242e+02 1.65451873e+01 
366 467.77 5.54436272e+02 1.66330881e+01 
367 468.58 5.57722224e+02 1.67316667e+01 
368 469.38 5.58615870e+02 1.67584761e+01 
369 470.18 5.59472408e+02 1.67841722e+01 
370 470.99 5.64978055e+02 1.69493417e+01 
371 471.79 5.73368630e+02 1.72010589e+01 
372 472.59 5.81059048e+02 1.74317714e+01 
373 473.40 5.86488843e+02 1.75946653e+01 
374 474.20 5.89952590e+02 1.76985777e+01 
375 475.00 5.92305218e+02 1.77691565e+01 
376 475.81 5.94303606e+02 1.78291082e+01 
377 476.61 5.97855148e+02 1.79356544e+01 
378 477.41 6.03738294e+02 1.81121488e+01 
379 478.21 6.09660900e+02 1.82898270e+01 
380 479.02 6.13720872e+02 1.84116262e+01 
381 479.82 6.15966019e+02 1.84789806e+01 
382 480.62 6.18517834e+02 1.85555350e+01 
383 481.43 6.19698232e+02 1.85909470e+01 
384 482.23 6.18525011e+02 1.85557503e+01 
385 483.03 6.14139612e+02 1.84241883e+01 
386 483.84 6.04220980e+02 1.81266294e+01 
387 484.64 5.85055149e+02 1.75516545e+01 
388 485.44 5.61813783e+02 1.68544135e+01 
389 486.24 5.48216410e+02 1.64464923e+01 
390 487.05 5.50498942e+02 1.65149683e+01 
391 487.85 5.65875885e+02 1.69762766e+01 
392 488.65 5.84691814e+02 1.75407544e+01 
393 489.45 5.97563832e+02 1.79269149e+01 
394 490.26 6.01904503e+02 1.80571351e+01 
395 491.06 5.99922564e+02 1.79976769e+01 
396 491.86 5.95922792e+02 1.78776838e+01 
397 492.66 5.95548771e+02 1.78664631e+01 
398 493.46 6.01158403e+02 1.80347521e+01 
399 494.27 6.08017912e+02 1.82405374e+01 
400 495.07 6.11935947e+02 1.83580784e+01 
401 495.87 6.13590838e+02 1.84077251e+01 
402 496.67 6.11201329e+02 1.83360399e+01 
403 497.48 6.06606938e+02 1.81982081e+01 
404 498.28 6.01833682e+02 1.80550105e+01 
405 499.08 5.95968343e+02 1.78790503e+01 
406 499.88 5.89484369e+02 1.76845311e+01 
407 500.68 5.84067516e+02 1.75220255e+01 
408 501.48 5.81341359e+02 1.74402408e+01 
409 502.29 5.83068272e+02 1.74920482e+01 
410 503.09 5.87122884e+02 1.76136865e+01 
411 503.89 5.92626471e+02 1.77787941e+01 
412 504.69 5.99101758e+02 1.79730528e+01 
413 505.49 6.04218253e+02 1.81265476e+01 
414 506.29 6.05596060e+02 1.81678818e+01 
415 507.09 6.03130133e+02 1.80939040e+01 
416 507.90 5.99911492e+02 1.79973448e+01 
417 508.70 5.98380834e+02 1.79514250e+01 
418 509.50 5.98691383e+02 1.79607415e+01 
419 510.30 5.99784634e+02 1.79935390e+01 
420 511.10 5.98734394e+02 1.79620318e+01 
421 511.90 5.94941278e+02 1.78482384e+01 
422 512.70 5.88783998e+02 1.76635199e+01 
423 513.51 5.81929068e+02 1.74578720e+01 
424 514.31 5.76225168e+02 1.72867550e+01 
425 515.11 5.67456306e+02 1.70236892e+01 
426 515.91 5.52930083e+02 1.65879025e+01 
427 516.71 5.38160158e+02 1.61448048e+01 
428 517.51 5.29578153e+02 1.58873446e+01 
429 518.31 5.32787973e+02 1.59836392e+01 
430 519.11 5.45633329e+02 1.63689999e+01 
431 519.91 5.59156560e+02 1.67746968e+01 
432 520.71 5.69280135e+02 1.70784041e+01 
433 521.51 5.73579971e+02 1.72073991e+01 
434 522.32 5.75798733e+02 1.72739620e+01 
435 523.12 5.79814993e+02 1.73944498e+01 
436 523.92 5.83926602e+02 1.75177981e+01 
437 524.72 5.83868677e+02 1.75160603e+01 
438 525.52 5.76155740e+02 1.72846722e+01 
439 526.32 5.66312667e+02 1.69893800e+01 
440 527.12 5.64134438e+02 1.69240331e+01 
441 527.92 5.71336897e+02 1.71401069e+01 
442 528.72 5.83988059e+02 1.75196418e+01 
443 529.52 5.95323600e+02 1.78597080e+01 
444 530.32 6.00409741e+02 1.80122922e+01 
445 531.12 5.98363955e+02 1.79509186e+01 
446 531.92 5.92805108e+02 1.77841532e+01 
447 532.72 5.87615507e+02 1.76284652e+01 
448 533.52 5.86672333e+02 1.76001700e+01 
449 534.32 5.90975162e+02 1.77292549e+01 
450 535.12 5.95743376e+02 1.78723013e+01 
451 535.92 5.96843472e+02 1.79053042e+01 
452 536.72 5.95587278e+02 1.78676183e+01 
453 537.52 5.92906600e+02 1.77871980e+01 
454 538.32 5.88926459e+02 1.76677938e+01 
455 539.12 5.83999535e+02 1.75199860e+01 
456 539.92 5.79392871e+02 1.73817861e+01 
457 540.72 5.77531132e+02 1.73259340e+01 
458 541.52 5.78981211e+02 1.73694363e+01 
459 542.32 5.83268380e+02 1.74980514e+01 
460 543.12 5.87703829e+02 1.76311149e+01 
461 543.92 5.90788152e+02 1.77236446e+01 
462 544.72 5.92743754e+02 1.77823126e+01 
463 545.52 5.92540611e+02 1.77762183e+01 
464 546.31 5.89852919e+02 1.76955876e+01 
465 547.12 5.86582889e+02 1.75974867e+01 
466 547.91 5.84675252e+02 1.75402576e+01 
467 548.71 5.84285431e+02 1.75285629e+01 
468 549.51 5.84728378e+02 1.75418513e+01 
469 550.31 5.84718256e+02 1.75415477e+01 
470 551.11 5.84090388e+02 1.75227116e+01 
471 551.91 5.83496279e+02 1.75048884e+01 
472 552.71 5.83382756e+02 1.75014827e+01 
