% C0 (TOA Count Rate, /ms) for 4STAR NIR spectrometer (512 channels) derived from (SEE Original files for sources) and recorded on 2019-08-19 00:30:01.
% Langley at MLO and airborne Data outside 2.0x the STD of 501 nm Langley residuals were screened out. 
% Including high Altitude rate spectra, matched to splined stratospheric AOD measured at MLO.
% Averages of c0 from multiple days including: , infl-ig-ht, infl-ig-ht, infl-ig-ht, infl-ig-ht, infl-ig-ht. See the list of files below
% 20160825_NIR_C0_refined_Langley_ORACLES_transit2.dat
% 20160908_NIR_C0_refined_Langley_airborne_ORACLES_v1.dat
% 20160912_NIR_C0_refined_Langley_airborne_ORACLES_v1.dat
% 20160918_NIR_C0_refined_Langley_airborne_ORACLES_v1.dat
% 20160924_NIR_C0_refined_Langley_airborne_ORACLES_v1.dat
Pix Wavelength C0 C0err
511 949.79 5.66702170e+00 2.66332544e-01 
510 949.79 5.81260690e+00 2.61343099e-01 
509 951.68 6.19493068e+00 2.52543104e-01 
508 953.57 6.24023573e+00 2.42827721e-01 
507 955.46 6.68378698e+00 2.27569707e-01 
506 957.34 6.76639656e+00 2.06461812e-01 
505 959.22 7.20395079e+00 1.99909038e-01 
504 961.10 7.24107249e+00 1.46179531e-01 
503 962.98 7.63765677e+00 1.35390974e-01 
502 964.85 7.59019896e+00 9.97747768e-02 
501 966.72 8.04844222e+00 8.25847702e-02 
500 968.59 8.05614636e+00 5.74441946e-02 
499 970.45 8.42878390e+00 4.82284796e-02 
498 972.32 8.40921351e+00 6.25976482e-02 
497 974.18 8.73807736e+00 7.03229033e-02 
496 976.04 8.64991926e+00 5.74898666e-02 
495 977.89 8.96316939e+00 5.98814689e-02 
494 979.74 8.83559448e+00 3.83221363e-02 
493 981.59 9.11118878e+00 3.34398056e-02 
492 983.44 8.96919627e+00 4.43264770e-02 
491 985.29 9.20809745e+00 4.99682799e-02 
490 987.13 8.99491564e+00 5.85963596e-02 
489 988.97 9.21784322e+00 7.31651507e-02 
488 990.81 9.04635212e+00 5.99646518e-02 
487 992.65 9.21309364e+00 6.90385412e-02 
486 994.48 9.01834225e+00 7.20772695e-02 
485 996.31 9.15551827e+00 9.07131605e-02 
484 998.14 8.93745874e+00 7.10620302e-02 
483 999.97 9.07474165e+00 6.83572461e-02 
482 1001.79 8.80818383e+00 6.08336923e-02 
481 1003.62 8.87146205e+00 6.50775878e-02 
480 1005.44 8.67029945e+00 5.24916292e-02 
479 1007.25 8.89512238e+00 5.57975465e-02 
478 1009.07 8.69180189e+00 4.65604329e-02 
477 1010.88 8.85090192e+00 7.82109477e-02 
476 1012.69 8.57792971e+00 5.99041611e-02 
475 1014.50 8.69823172e+00 6.30575222e-02 
474 1016.31 8.48215836e+00 6.44909868e-02 
473 1018.11 8.61490487e+00 6.54479593e-02 
472 1019.91 8.36292299e+00 6.73657776e-02 
471 1021.71 8.50808964e+00 7.80424714e-02 
470 1023.51 8.28690496e+00 7.18201176e-02 
469 1025.30 8.44842246e+00 7.68062390e-02 
468 1027.09 8.35590319e+00 6.48647312e-02 
467 1028.88 8.48657231e+00 7.81461682e-02 
466 1030.67 8.33968669e+00 6.97142240e-02 
465 1032.46 8.50241152e+00 8.29594074e-02 
464 1034.24 8.33761741e+00 8.73792063e-02 
463 1036.02 8.52689277e+00 9.41995708e-02 
462 1037.80 8.40077238e+00 8.82920356e-02 
461 1039.58 8.61291142e+00 9.07528858e-02 
460 1041.35 8.47763157e+00 7.76957755e-02 
459 1043.12 8.63526711e+00 7.16301047e-02 
458 1044.89 8.55416946e+00 7.91726579e-02 
457 1046.66 8.77149057e+00 8.61956242e-02 
456 1048.43 8.71191746e+00 6.94907088e-02 
455 1050.19 8.92796084e+00 7.36995459e-02 
454 1051.95 8.81136238e+00 7.13290483e-02 
453 1053.71 9.05472292e+00 7.70771530e-02 
452 1055.47 8.90400365e+00 6.78487680e-02 
451 1057.23 9.04256811e+00 7.24541914e-02 
450 1058.98 8.89733978e+00 6.50064425e-02 
449 1060.73 9.05545011e+00 7.66126484e-02 
448 1062.48 8.84647122e+00 8.50260673e-02 
447 1064.23 8.96602123e+00 9.64598596e-02 
446 1065.97 8.66975191e+00 1.03079148e-01 
445 1067.71 8.69965564e+00 1.11911757e-01 
444 1069.46 8.51576255e+00 8.60551313e-02 
443 1071.19 8.63860155e+00 7.73787632e-02 
442 1072.93 8.48836479e+00 8.62977942e-02 
441 1074.67 8.58048993e+00 8.05566366e-02 
440 1076.40 8.38157409e+00 7.64587563e-02 
439 1078.13 8.40493674e+00 9.15956735e-02 
438 1079.86 8.19264476e+00 7.23089414e-02 
437 1081.58 8.27203808e+00 7.06765546e-02 
436 1083.31 8.17024549e+00 6.57062159e-02 
435 1085.03 8.35078913e+00 6.79314085e-02 
434 1086.75 8.29270722e+00 6.31033092e-02 
433 1088.47 8.45700386e+00 6.24206562e-02 
432 1090.19 8.36357005e+00 6.98116071e-02 
431 1091.90 8.49393400e+00 6.57347583e-02 
430 1093.61 8.38562847e+00 4.62060531e-02 
429 1095.33 8.60995265e+00 4.24953376e-02 
428 1097.03 8.67056471e+00 4.35848725e-02 
427 1098.74 8.93102094e+00 4.95395364e-02 
426 1100.45 8.97022568e+00 5.04072810e-02 
425 1102.15 9.27714327e+00 6.35264884e-02 
424 1103.85 9.30499109e+00 6.20368153e-02 
423 1105.55 9.60606109e+00 6.16207386e-02 
422 1107.25 9.57903215e+00 9.80756613e-02 
421 1108.94 9.81895430e+00 1.58665083e-01 
420 1110.64 9.75778303e+00 2.20134514e-01 
419 1112.33 9.99515062e+00 3.79769189e-01 
418 1114.02 9.91947065e+00 5.84580050e-01 
417 1115.70 1.00953402e+01 7.52046053e-01 
416 1117.39 9.94768112e+00 8.26257479e-01 
415 1119.07 1.00490829e+01 9.40561031e-01 
414 1120.76 9.97776711e+00 1.00050656e+00 
413 1122.44 1.01894370e+01 1.10451946e+00 
412 1124.12 1.01145250e+01 1.08178174e+00 
411 1125.79 1.02374300e+01 9.99335599e-01 
410 1127.47 1.01706679e+01 8.24532097e-01 
409 1129.14 1.03057515e+01 7.24098016e-01 
408 1130.81 1.01836907e+01 9.10463531e-01 
407 1132.48 1.02542772e+01 1.02623596e+00 
406 1134.15 1.00894269e+01 1.02780279e+00 
405 1135.81 1.01123504e+01 7.99145549e-01 
404 1137.48 1.00609178e+01 4.96848406e-01 
403 1139.14 1.02044978e+01 4.33263138e-01 
402 1140.80 1.00477254e+01 5.16728986e-01 
401 1142.46 1.01883933e+01 6.54480662e-01 
400 1144.12 1.00358966e+01 7.05641228e-01 
399 1145.77 1.01238999e+01 7.53714320e-01 
398 1147.43 1.00006520e+01 6.86172195e-01 
397 1149.08 1.00379016e+01 6.02315546e-01 
396 1150.73 9.93761915e+00 5.79479047e-01 
395 1152.38 1.00503516e+01 4.88528039e-01 
394 1154.02 9.91320486e+00 4.12839480e-01 
393 1155.67 1.00064886e+01 3.24673265e-01 
392 1157.31 9.77560949e+00 2.77099355e-01 
391 1158.95 9.76605697e+00 1.84764383e-01 
390 1160.59 9.60932715e+00 1.49723830e-01 
389 1162.23 9.67107065e+00 1.11755869e-01 
388 1163.87 9.52743061e+00 7.82572194e-02 
387 1165.50 9.56003626e+00 6.59465374e-02 
386 1167.13 9.43610548e+00 6.04382698e-02 
385 1168.76 9.52300220e+00 4.81143956e-02 
384 1170.39 9.42292334e+00 5.88844232e-02 
383 1172.02 9.40357350e+00 6.37712116e-02 
382 1173.65 9.21631083e+00 5.79099075e-02 
381 1175.27 9.20502913e+00 7.90495356e-02 
380 1176.90 9.07182371e+00 6.87743457e-02 
379 1178.52 9.07197628e+00 7.87249352e-02 
378 1180.14 8.85041171e+00 7.22917714e-02 
377 1181.75 8.84956672e+00 1.01823258e-01 
376 1183.37 8.66466270e+00 1.04197868e-01 
375 1184.99 8.69070976e+00 8.71420031e-02 
374 1186.60 8.52837577e+00 8.32147311e-02 
373 1188.21 8.46491040e+00 7.07334810e-02 
372 1189.82 8.34284027e+00 5.83627010e-02 
371 1191.43 8.52048417e+00 6.06380572e-02 
370 1193.04 8.41877545e+00 5.35451602e-02 
369 1194.64 8.41534838e+00 6.49336332e-02 
368 1196.24 8.26837706e+00 5.52830291e-02 
367 1197.85 8.33339195e+00 4.98049548e-02 
366 1199.45 8.23067565e+00 5.81597749e-02 
365 1201.05 8.32055979e+00 5.61373287e-02 
364 1202.64 8.24713071e+00 5.08888497e-02 
363 1204.24 8.27020818e+00 5.38886936e-02 
362 1205.83 8.14413212e+00 5.56218428e-02 
361 1207.43 8.14567860e+00 6.56968095e-02 
360 1209.02 8.09195541e+00 5.35353289e-02 
359 1210.61 8.21984626e+00 5.03420392e-02 
358 1212.19 8.17675103e+00 6.33515745e-02 
357 1213.78 8.29434206e+00 7.17250935e-02 
356 1215.37 8.23324654e+00 5.22886200e-02 
355 1216.95 8.28308271e+00 6.15229452e-02 
354 1218.53 8.24615354e+00 5.52344893e-02 
353 1220.11 8.31082750e+00 6.29593906e-02 
352 1221.69 8.29865920e+00 5.40140087e-02 
351 1223.27 8.33078131e+00 6.30982767e-02 
350 1224.84 8.30850608e+00 4.48080390e-02 
349 1226.42 8.33711366e+00 5.74099027e-02 
348 1227.99 8.29500417e+00 4.92398510e-02 
347 1229.56 8.42209849e+00 5.57018668e-02 
346 1231.13 8.34434223e+00 5.49644252e-02 
345 1232.70 8.41109387e+00 7.10257998e-02 
344 1234.27 8.35666514e+00 8.06048307e-02 
343 1235.84 8.36695714e+00 7.57278598e-02 
342 1237.40 8.29638424e+00 8.43332981e-02 
341 1238.96 8.28590207e+00 8.83566676e-02 
340 1240.52 8.14109291e+00 9.34989904e-02 
339 1242.08 8.24504715e+00 1.04895162e-01 
338 1243.64 8.21832870e+00 9.98662458e-02 
337 1245.20 8.25015139e+00 1.12838563e-01 
336 1246.75 8.23709539e+00 8.93077678e-02 
335 1248.31 8.32096472e+00 8.16968507e-02 
334 1249.86 8.24165885e+00 8.08538371e-02 
333 1251.41 8.28801827e+00 6.41470167e-02 
332 1252.96 8.20133390e+00 7.01788968e-02 
331 1254.51 8.24906700e+00 6.43214383e-02 
330 1256.06 8.19828500e+00 5.64983006e-02 
329 1257.61 8.19246098e+00 4.38091849e-02 
328 1259.15 8.13496691e+00 7.90071402e-02 
327 1260.69 8.14201660e+00 8.92729501e-02 
326 1262.23 8.05282148e+00 9.57670766e-02 
325 1263.77 8.05626779e+00 1.14850796e-01 
324 1265.31 7.99346222e+00 1.05754812e-01 
323 1266.85 8.04765311e+00 1.13202037e-01 
322 1268.39 8.06115168e+00 1.26583380e-01 
321 1269.92 8.12939575e+00 1.13067442e-01 
320 1271.46 8.16950459e+00 8.12433722e-02 
319 1272.99 8.15038045e+00 5.93313450e-02 
318 1274.52 8.09657505e+00 5.03460296e-02 
317 1276.05 8.13483219e+00 6.39772898e-02 
316 1277.58 7.98358171e+00 5.16879933e-02 
315 1279.10 7.81177001e+00 5.74275862e-02 
314 1280.63 7.76344444e+00 5.85721086e-02 
313 1282.15 7.74274914e+00 6.85080476e-02 
312 1283.68 7.84820138e+00 4.38822607e-02 
311 1285.20 7.99908677e+00 5.36572066e-02 
310 1286.72 7.98705387e+00 4.00003271e-02 
309 1288.24 8.00803246e+00 4.81941039e-02 
308 1289.75 7.89423888e+00 4.97573954e-02 
307 1291.27 7.89750881e+00 6.53796346e-02 
306 1292.78 7.95522525e+00 6.05750701e-02 
305 1294.30 7.95882385e+00 7.17342417e-02 
304 1295.81 7.88938226e+00 6.81859560e-02 
303 1297.32 7.89395019e+00 6.70848568e-02 
302 1298.83 7.84812111e+00 7.01619688e-02 
301 1300.34 7.83581214e+00 6.64775966e-02 
300 1301.85 7.80501132e+00 5.40103450e-02 
299 1303.35 7.79485581e+00 6.09737753e-02 
298 1304.86 7.75322512e+00 4.85427603e-02 
297 1306.36 7.75358018e+00 5.59652015e-02 
296 1307.86 7.69099156e+00 5.40094185e-02 
295 1309.36 7.59714111e+00 6.64556297e-02 
294 1310.86 7.54192923e+00 7.55801884e-02 
293 1312.36 7.46457564e+00 6.73127382e-02 
292 1313.86 7.44009791e+00 8.83604746e-02 
291 1315.36 7.44782047e+00 8.37021672e-02 
290 1316.85 7.40306224e+00 9.11381565e-02 
289 1318.34 7.37887253e+00 8.62850259e-02 
288 1319.84 7.36774893e+00 9.81443411e-02 
287 1321.33 7.36405519e+00 1.19697301e-01 
286 1322.82 7.30064261e+00 9.05387703e-02 
285 1324.30 7.34110149e+00 1.23002630e-01 
284 1325.79 7.27507174e+00 1.49147649e-01 
283 1327.28 7.21294333e+00 1.86101900e-01 
282 1328.76 7.15279372e+00 2.35903014e-01 
281 1330.25 7.12751164e+00 2.67668526e-01 
280 1331.73 7.06299686e+00 2.67695485e-01 
279 1333.21 7.06527396e+00 2.63865797e-01 
278 1334.69 7.03065454e+00 2.77178297e-01 
277 1336.17 6.97363789e+00 2.46312367e-01 
276 1337.65 6.94140490e+00 2.64690052e-01 
275 1339.12 6.82415391e+00 2.39018466e-01 
274 1340.60 6.82345470e+00 3.11813711e-01 
273 1342.07 6.82670398e+00 3.75788472e-01 
272 1343.55 6.75971521e+00 4.79614340e-01 
271 1345.02 6.67726636e+00 6.98056973e-01 
270 1346.49 6.56918142e+00 8.42161756e-01 
269 1347.96 6.51376865e+00 1.06359320e+00 
268 1349.43 6.42795641e+00 1.26164106e+00 
267 1350.89 6.33672387e+00 1.47477973e+00 
266 1352.36 6.25992238e+00 1.92361620e+00 
265 1353.82 6.12289972e+00 2.11159996e+00 
264 1355.29 6.14491664e+00 2.57929821e+00 
263 1356.75 6.18605681e+00 2.88691949e+00 
262 1358.21 6.22771765e+00 3.42541219e+00 
261 1359.67 6.29484908e+00 3.97677374e+00 
260 1361.13 6.35643051e+00 4.33936342e+00 
259 1362.59 6.16109320e+00 4.10961599e+00 
258 1364.04 6.02223686e+00 3.65591141e+00 
257 1365.50 6.04032389e+00 3.73104088e+00 
256 1366.95 6.01842616e+00 3.69438621e+00 
255 1368.41 6.04789110e+00 3.89150562e+00 
254 1369.86 5.89505747e+00 3.65421332e+00 
253 1371.31 5.48134532e+00 2.82049245e+00 
252 1372.76 5.14414169e+00 2.37280163e+00 
251 1374.21 4.77225267e+00 1.79867683e+00 
250 1375.65 4.40303896e+00 1.51718202e+00 
249 1377.10 4.06211572e+00 1.42166494e+00 
248 1378.55 3.81165573e+00 1.53733823e+00 
247 1379.99 3.57495185e+00 1.71777535e+00 
246 1381.43 3.72860842e+00 2.17711385e+00 
245 1382.87 3.82169224e+00 2.25421450e+00 
244 1384.32 3.78226202e+00 1.93843841e+00 
243 1385.75 3.81447562e+00 1.66726555e+00 
242 1387.19 3.82226570e+00 1.30652180e+00 
241 1388.63 3.76208490e+00 1.13033296e+00 
240 1390.07 3.83561331e+00 1.15941920e+00 
239 1391.50 3.92937414e+00 1.28968697e+00 
238 1392.94 4.01267466e+00 1.73044925e+00 
237 1394.37 4.09513809e+00 1.72093457e+00 
236 1395.80 4.16544302e+00 1.58334691e+00 
235 1397.23 4.19550642e+00 1.71109870e+00 
234 1398.66 4.25573643e+00 1.59278773e+00 
233 1400.09 4.34994019e+00 1.51503099e+00 
232 1401.52 4.46164723e+00 1.78641018e+00 
231 1402.94 4.53222301e+00 1.63492603e+00 
230 1404.37 4.55922452e+00 1.57419405e+00 
229 1405.79 4.56029167e+00 1.66538202e+00 
228 1407.22 4.58773026e+00 1.60591667e+00 
227 1408.64 4.63601850e+00 1.45478796e+00 
226 1410.06 4.66636027e+00 1.32376495e+00 
225 1411.48 4.65382107e+00 1.29450097e+00 
224 1412.90 4.68117893e+00 1.15989024e+00 
223 1414.32 4.65048109e+00 1.04959696e+00 
222 1415.73 4.73509413e+00 1.16809114e+00 
221 1417.15 4.77204231e+00 1.13109626e+00 
220 1418.56 4.82194796e+00 1.06635480e+00 
219 1419.98 4.80285552e+00 1.11198420e+00 
218 1421.39 4.78937771e+00 9.93905380e-01 
217 1422.80 4.75835992e+00 8.43342972e-01 
216 1424.21 4.79767634e+00 8.27328300e-01 
215 1425.62 4.76771855e+00 8.13990077e-01 
214 1427.03 4.74195226e+00 7.10539077e-01 
213 1428.44 4.60197577e+00 6.56959724e-01 
212 1429.84 4.53581023e+00 6.93240576e-01 
211 1431.25 4.42949179e+00 5.81520019e-01 
210 1432.65 4.45278876e+00 6.14742524e-01 
209 1434.06 4.51474417e+00 6.46771741e-01 
208 1435.46 4.57550541e+00 6.22673535e-01 
207 1436.86 4.57110230e+00 6.15073288e-01 
206 1438.26 4.57298168e+00 5.86226491e-01 
205 1439.66 4.55452349e+00 5.77559661e-01 
204 1441.05 4.58726599e+00 5.25422044e-01 
203 1442.45 4.53546308e+00 5.47231405e-01 
202 1443.85 4.57532051e+00 5.60611250e-01 
201 1445.24 4.55853001e+00 4.90690575e-01 
200 1446.64 4.60940445e+00 5.11716621e-01 
199 1448.03 4.63136711e+00 5.52469660e-01 
198 1449.42 4.66860014e+00 5.09377310e-01 
197 1450.81 4.64316592e+00 4.83792009e-01 
196 1452.20 4.59916822e+00 4.26967871e-01 
195 1453.59 4.57392376e+00 2.87081981e-01 
194 1454.97 4.60245903e+00 2.32042386e-01 
193 1456.36 4.57586892e+00 2.04847961e-01 
192 1457.75 4.61743590e+00 2.24578303e-01 
191 1459.13 4.57928139e+00 2.24966838e-01 
190 1460.51 4.61078304e+00 2.69081286e-01 
189 1461.90 4.52554526e+00 3.07826152e-01 
188 1463.28 4.56778138e+00 3.67863464e-01 
187 1464.66 4.51803598e+00 3.85078659e-01 
186 1466.04 4.57144014e+00 3.92576046e-01 
185 1467.41 4.52557180e+00 4.59725537e-01 
184 1468.79 4.49929739e+00 4.68882752e-01 
183 1470.17 4.43721508e+00 4.46486568e-01 
182 1471.54 4.45465789e+00 4.22887153e-01 
181 1472.92 4.43229685e+00 3.71137842e-01 
180 1474.29 4.44525570e+00 3.12276294e-01 
179 1475.66 4.40196654e+00 2.79629917e-01 
178 1477.03 4.39665362e+00 2.98159083e-01 
177 1478.40 4.37720026e+00 3.32914354e-01 
176 1479.77 4.40251050e+00 3.19345058e-01 
175 1481.14 4.34874615e+00 2.66175763e-01 
174 1482.51 4.40112698e+00 2.50818249e-01 
173 1483.87 4.33466679e+00 2.34585981e-01 
172 1485.24 4.29270972e+00 2.03764368e-01 
171 1486.60 4.22400388e+00 1.88833836e-01 
170 1487.96 4.25689941e+00 1.77560390e-01 
169 1489.32 4.16589961e+00 1.30007037e-01 
168 1490.68 4.27711188e+00 1.20037547e-01 
167 1492.04 4.23502292e+00 8.57848457e-02 
166 1493.40 4.25658158e+00 9.03949914e-02 
165 1494.76 4.20703407e+00 9.41124189e-02 
164 1496.12 4.22611580e+00 8.32533209e-02 
163 1497.47 4.17131283e+00 5.76943693e-02 
162 1498.83 4.22749155e+00 5.24735157e-02 
161 1500.18 4.08831576e+00 4.74239514e-02 
160 1501.53 4.02168738e+00 5.26251030e-02 
159 1502.89 3.91320103e+00 4.68504890e-02 
158 1504.24 3.92542207e+00 5.81528285e-02 
157 1505.59 3.94288468e+00 5.92471449e-02 
156 1506.93 4.04129414e+00 4.20479921e-02 
155 1508.28 4.04808249e+00 4.01815524e-02 
154 1509.63 4.07239010e+00 3.36873475e-02 
153 1510.97 4.01225576e+00 2.64720565e-02 
152 1512.32 4.04021784e+00 3.26409474e-02 
151 1513.66 3.97874169e+00 2.71755167e-02 
150 1515.00 4.01895298e+00 2.20550628e-02 
149 1516.34 3.97704185e+00 2.89652749e-02 
148 1517.69 4.00109190e+00 2.02651594e-02 
147 1519.02 3.93182559e+00 2.48689843e-02 
146 1520.36 3.93812952e+00 2.78323924e-02 
145 1521.70 3.88503424e+00 3.24228476e-02 
144 1523.04 3.95209648e+00 2.40142016e-02 
143 1524.37 3.89363085e+00 3.88356270e-02 
142 1525.71 3.94581657e+00 4.00946494e-02 
141 1527.04 3.87076372e+00 3.96814838e-02 
140 1528.37 3.89926890e+00 3.49891364e-02 
139 1529.70 3.82946745e+00 3.47039980e-02 
138 1531.03 3.84923904e+00 5.20460078e-02 
137 1532.36 3.80594257e+00 5.31340246e-02 
136 1533.69 3.82481515e+00 7.02445520e-02 
135 1535.02 3.74364495e+00 6.52092927e-02 
134 1536.34 3.77680586e+00 4.69509796e-02 
133 1537.67 3.69877468e+00 4.49313906e-02 
132 1538.99 3.76010760e+00 3.31243294e-02 
131 1540.31 3.68901642e+00 5.72700830e-02 
130 1541.64 3.73509247e+00 3.52822195e-02 
129 1542.96 3.70152761e+00 3.29682293e-02 
128 1544.28 3.74587640e+00 2.23235465e-02 
127 1545.60 3.65529605e+00 3.25843617e-02 
126 1546.91 3.70260859e+00 2.75981587e-02 
125 1548.23 3.61325105e+00 3.63074785e-02 
124 1549.55 3.62653145e+00 4.84319122e-02 
123 1550.86 3.57020897e+00 4.57055059e-02 
122 1552.18 3.58633733e+00 4.42571692e-02 
121 1553.49 3.51192913e+00 5.90431061e-02 
120 1554.80 3.58692182e+00 3.72038798e-02 
119 1556.11 3.53053356e+00 3.59217422e-02 
118 1557.42 3.57025066e+00 2.64057817e-02 
117 1558.73 3.50622427e+00 3.38330528e-02 
116 1560.04 3.53336238e+00 2.15593559e-02 
115 1561.34 3.45004984e+00 2.52041977e-02 
114 1562.65 3.50582549e+00 1.76421498e-02 
113 1563.95 3.42283466e+00 2.93229515e-02 
112 1565.26 3.47410879e+00 2.75759908e-02 
111 1566.56 3.37392042e+00 3.58890604e-02 
110 1567.86 3.41055280e+00 3.15672292e-02 
109 1569.16 3.32699126e+00 3.75436647e-02 
108 1570.46 3.32888761e+00 4.49523146e-02 
107 1571.76 3.22966196e+00 5.49844922e-02 
106 1573.05 3.20363145e+00 5.19729351e-02 
105 1574.35 3.08834720e+00 5.46892813e-02 
104 1575.64 3.10494556e+00 5.65910499e-02 
103 1576.94 3.06340732e+00 5.08383847e-02 
102 1578.23 3.13421638e+00 4.12286785e-02 
101 1579.52 3.09714656e+00 4.35288273e-02 
100 1580.81 3.16761233e+00 3.30070020e-02 
99 1582.10 3.09258322e+00 2.66982780e-02 
98 1583.39 3.15769637e+00 2.01476051e-02 
97 1584.68 3.07928314e+00 2.57606186e-02 
96 1585.97 3.07256043e+00 2.82098505e-02 
95 1587.25 2.96969738e+00 1.67441321e-02 
94 1588.54 2.97788389e+00 3.18824593e-02 
93 1589.82 2.92395075e+00 3.48896786e-02 
92 1591.10 3.02087537e+00 2.96536044e-02 
91 1592.38 2.98032632e+00 4.00575518e-02 
90 1593.66 3.05119454e+00 2.54485352e-02 
89 1594.94 2.98342290e+00 2.81074267e-02 
88 1596.22 3.03137810e+00 2.15692065e-02 
87 1597.50 2.94227842e+00 2.06174401e-02 
86 1598.77 2.97599845e+00 2.18440345e-02 
85 1600.05 2.88946215e+00 3.96971039e-02 
84 1601.32 2.92964401e+00 2.23777337e-02 
83 1602.59 2.83020860e+00 3.89073664e-02 
82 1603.86 2.90355818e+00 1.88815077e-02 
81 1605.13 2.77875239e+00 2.81710924e-02 
80 1606.40 2.83266605e+00 1.99908714e-02 
79 1607.67 2.72898410e+00 2.85024061e-02 
78 1608.94 2.77003323e+00 2.15414853e-02 
77 1610.20 2.70266126e+00 1.36845984e-02 
76 1611.47 2.75114099e+00 1.52696058e-02 
75 1612.73 2.67613580e+00 1.71287432e-02 
74 1614.00 2.70571558e+00 2.58149715e-02 
73 1615.26 2.62190607e+00 3.19458985e-02 
72 1616.52 2.63639115e+00 2.52616423e-02 
71 1617.78 2.52617364e+00 4.80584236e-02 
70 1619.03 2.57485908e+00 3.25630919e-02 
69 1620.29 2.51136504e+00 3.42321168e-02 
68 1621.55 2.57931438e+00 2.12940102e-02 
67 1622.80 2.50488917e+00 2.41967702e-02 
66 1624.06 2.56867844e+00 3.62546424e-02 
65 1625.31 2.47503770e+00 2.17515601e-02 
64 1626.56 2.53697189e+00 2.29898865e-02 
