% C0 (TOA Count Rate, /ms) for 4STAR NIR spectrometer (512 channels) derived from (SEE Original files for sources) and recorded on 2017-06-16 15:54:47.
% Langley at MLO and airborne Data outside 2.0x the STD of 501 nm Langley residuals were screened out. 
% Including high Altitude rate spectra, matched to splined stratospheric AOD measured at MLO.
% Averages of c0 from multiple days including: , infl-ig-ht, high- a-lt, high- a-lt. See the list of files below
% 20160908_NIR_C0_refined_Langley_airborne_ORACLES_v1.dat
% 20160904_NIR_C0_refined_high_alt_low_m.dat
% 20160908_NIR_C0_refined_high_alt_low_m.dat
Pix Wavelength C0 C0err
511 949.79 5.39792665e+00 8.07327170e-02 
510 949.79 5.55620686e+00 7.91327370e-02 
509 951.68 5.94171874e+00 8.24491083e-02 
508 953.57 6.00033156e+00 7.47086389e-02 
507 955.46 6.46229601e+00 7.78555892e-02 
506 957.34 6.55835025e+00 7.43054101e-02 
505 959.22 7.01903502e+00 7.62846133e-02 
504 961.10 7.09288645e+00 6.49832280e-02 
503 962.98 7.50881704e+00 7.35980768e-02 
502 964.85 7.49693457e+00 5.66871344e-02 
501 966.72 7.99488322e+00 6.89608471e-02 
500 968.59 8.01087030e+00 5.35577584e-02 
499 970.45 8.40841039e+00 5.40088826e-02 
498 972.32 8.36494605e+00 4.20562026e-02 
497 974.18 8.69803588e+00 4.44561196e-02 
496 976.04 8.60886256e+00 3.75841475e-02 
495 977.89 8.94494693e+00 4.77542465e-02 
494 979.74 8.84254614e+00 3.57865981e-02 
493 981.59 9.12711875e+00 4.30331967e-02 
492 983.44 8.99026171e+00 4.88700650e-02 
491 985.29 9.24776872e+00 4.97991883e-02 
490 987.13 9.04039288e+00 4.60421385e-02 
489 988.97 9.27171262e+00 5.52249362e-02 
488 990.81 9.09044393e+00 4.10835482e-02 
487 992.65 9.26194477e+00 5.60462659e-02 
486 994.48 9.07071686e+00 4.80685826e-02 
485 996.31 9.21584384e+00 5.15936950e-02 
484 998.14 8.98223336e+00 4.66898617e-02 
483 999.97 9.11309560e+00 5.61953106e-02 
482 1001.79 8.83691438e+00 4.60051090e-02 
481 1003.62 8.91467825e+00 5.30381887e-02 
480 1005.44 8.69259771e+00 4.56724294e-02 
479 1007.25 8.93300025e+00 4.32829346e-02 
478 1009.07 8.71321869e+00 4.20748679e-02 
477 1010.88 8.88133876e+00 4.11184136e-02 
476 1012.69 8.60731284e+00 3.93391515e-02 
475 1014.50 8.72497177e+00 4.73815598e-02 
474 1016.31 8.51098665e+00 4.30827108e-02 
473 1018.11 8.64295292e+00 4.40018069e-02 
472 1019.91 8.39578374e+00 4.58250206e-02 
471 1021.71 8.54225159e+00 5.09887144e-02 
470 1023.51 8.32007726e+00 4.84754874e-02 
469 1025.30 8.48882325e+00 5.46219847e-02 
468 1027.09 8.38135497e+00 4.92238156e-02 
467 1028.88 8.52471510e+00 5.50998718e-02 
466 1030.67 8.37438711e+00 4.91389871e-02 
465 1032.46 8.55141322e+00 4.83045063e-02 
464 1034.24 8.38655631e+00 5.42437307e-02 
463 1036.02 8.58137131e+00 5.78470196e-02 
462 1037.80 8.45276197e+00 5.11805088e-02 
461 1039.58 8.65061887e+00 6.00310615e-02 
460 1041.35 8.51351547e+00 5.22994455e-02 
459 1043.12 8.66342926e+00 5.49649033e-02 
458 1044.89 8.58257294e+00 4.73512837e-02 
457 1046.66 8.80524127e+00 4.60486919e-02 
456 1048.43 8.74574026e+00 4.76480539e-02 
455 1050.19 8.97153314e+00 5.39194744e-02 
454 1051.95 8.83384196e+00 4.81324439e-02 
453 1053.71 9.09361744e+00 5.01371158e-02 
452 1055.47 8.93401686e+00 4.26041199e-02 
451 1057.23 9.07228406e+00 5.14094902e-02 
450 1058.98 8.91777706e+00 4.53089558e-02 
449 1060.73 9.08031972e+00 4.57584256e-02 
448 1062.48 8.87514210e+00 4.13249397e-02 
447 1064.23 9.00285721e+00 4.18189192e-02 
446 1065.97 8.71345933e+00 3.81119665e-02 
445 1067.71 8.76375898e+00 5.41639755e-02 
444 1069.46 8.56624444e+00 5.03136647e-02 
443 1071.19 8.68515110e+00 5.65330600e-02 
442 1072.93 8.53124046e+00 4.97696732e-02 
441 1074.67 8.62512048e+00 5.24774521e-02 
440 1076.40 8.42361577e+00 5.28765153e-02 
439 1078.13 8.45821889e+00 5.45279538e-02 
438 1079.86 8.22083028e+00 5.17130212e-02 
437 1081.58 8.30288696e+00 5.44767107e-02 
436 1083.31 8.19369062e+00 4.43510401e-02 
435 1085.03 8.37715149e+00 5.30713384e-02 
434 1086.75 8.30901623e+00 5.37149276e-02 
433 1088.47 8.47469966e+00 5.86885477e-02 
432 1090.19 8.37775930e+00 4.77212252e-02 
431 1091.90 8.49989160e+00 5.31003927e-02 
430 1093.61 8.39140924e+00 3.15219342e-02 
429 1095.33 8.60916996e+00 3.99671865e-02 
428 1097.03 8.65183799e+00 2.92219218e-02 
427 1098.74 8.91171328e+00 3.69901660e-02 
426 1100.45 8.92698574e+00 3.29865531e-02 
425 1102.15 9.22342142e+00 4.09684654e-02 
424 1103.85 9.25571156e+00 3.21605354e-02 
423 1105.55 9.53607051e+00 3.38444338e-02 
422 1107.25 9.48270416e+00 4.13151489e-02 
421 1108.94 9.67136828e+00 4.89659176e-02 
420 1110.64 9.51980623e+00 4.21925631e-02 
419 1112.33 9.59490013e+00 7.00256399e-02 
418 1114.02 9.31165346e+00 1.06153527e-01 
417 1115.70 9.31278006e+00 1.29038213e-01 
416 1117.39 9.06788762e+00 1.48983193e-01 
415 1119.07 9.06222280e+00 1.68943556e-01 
414 1120.76 8.94170666e+00 1.85756727e-01 
413 1122.44 9.04509353e+00 2.06828896e-01 
412 1124.12 8.98715623e+00 2.10653580e-01 
411 1125.79 9.18081919e+00 2.06928943e-01 
410 1127.47 9.27927367e+00 1.85576945e-01 
409 1129.14 9.52358882e+00 1.52108326e-01 
408 1130.81 9.19860268e+00 1.83721694e-01 
407 1132.48 9.14584509e+00 2.00358191e-01 
406 1134.15 8.98011653e+00 1.94346900e-01 
405 1135.81 9.22614352e+00 1.57228464e-01 
404 1137.48 9.50194041e+00 9.29571950e-02 
403 1139.14 9.71391932e+00 7.66142145e-02 
402 1140.80 9.48330625e+00 9.10599758e-02 
401 1142.46 9.48885727e+00 1.20812872e-01 
400 1144.12 9.26093705e+00 1.33225677e-01 
399 1145.77 9.32413165e+00 1.44226938e-01 
398 1147.43 9.28389072e+00 1.27500876e-01 
397 1149.08 9.41194566e+00 1.08908794e-01 
396 1150.73 9.34933694e+00 9.82484366e-02 
395 1152.38 9.55721251e+00 8.65863665e-02 
394 1154.02 9.49796708e+00 7.04248192e-02 
393 1155.67 9.67157555e+00 5.28916222e-02 
392 1157.31 9.49079132e+00 3.93675114e-02 
391 1158.95 9.55292543e+00 3.25048865e-02 
390 1160.59 9.43368562e+00 3.12925747e-02 
389 1162.23 9.55601947e+00 3.85411689e-02 
388 1163.87 9.44191424e+00 2.99891091e-02 
387 1165.50 9.49857934e+00 3.23081772e-02 
386 1167.13 9.38950984e+00 3.14525702e-02 
385 1168.76 9.49539757e+00 3.27805255e-02 
384 1170.39 9.37927914e+00 2.42601825e-02 
383 1172.02 9.37064362e+00 2.44917307e-02 
382 1173.65 9.17655691e+00 1.86235676e-02 
381 1175.27 9.15713374e+00 4.00858955e-02 
380 1176.90 9.02881590e+00 3.73121256e-02 
379 1178.52 9.00979614e+00 4.55182638e-02 
378 1180.14 8.79715570e+00 3.30386483e-02 
377 1181.75 8.79183896e+00 4.21094395e-02 
376 1183.37 8.60299587e+00 2.75657295e-02 
375 1184.99 8.62894694e+00 3.35256554e-02 
374 1186.60 8.47793897e+00 3.41773484e-02 
373 1188.21 8.42750740e+00 3.86379779e-02 
372 1189.82 8.32418601e+00 4.63919576e-02 
371 1191.43 8.50832335e+00 4.56528433e-02 
370 1193.04 8.41125679e+00 3.50024533e-02 
369 1194.64 8.40835508e+00 3.54157000e-02 
368 1196.24 8.25223828e+00 3.69557044e-02 
367 1197.85 8.31622473e+00 3.54990285e-02 
366 1199.45 8.19344966e+00 2.28015625e-02 
365 1201.05 8.27727413e+00 1.71933091e-02 
364 1202.64 8.19273535e+00 6.88786846e-03 
363 1204.24 8.20596536e+00 4.48537573e-03 
362 1205.83 8.10836156e+00 1.20321036e-02 
361 1207.43 8.11343670e+00 2.78668024e-02 
360 1209.02 8.06669553e+00 4.35067331e-02 
359 1210.61 8.19605795e+00 4.29623023e-02 
358 1212.19 8.16133181e+00 5.31544595e-02 
357 1213.78 8.28772482e+00 6.00356563e-02 
356 1215.37 8.23531787e+00 4.44633825e-02 
355 1216.95 8.27184868e+00 4.69577663e-02 
354 1218.53 8.21802139e+00 3.70285604e-02 
353 1220.11 8.29097049e+00 3.38837172e-02 
352 1221.69 8.27555847e+00 3.41839602e-02 
351 1223.27 8.31968562e+00 4.48391049e-02 
350 1224.84 8.29752572e+00 3.36993633e-02 
349 1226.42 8.34116173e+00 3.97266809e-02 
348 1227.99 8.31041559e+00 4.08614450e-02 
347 1229.56 8.43685850e+00 5.45452096e-02 
346 1231.13 8.36037445e+00 5.45588475e-02 
345 1232.70 8.43313535e+00 5.67047153e-02 
344 1234.27 8.39195697e+00 5.58692873e-02 
343 1235.84 8.41071161e+00 4.95249998e-02 
342 1237.40 8.33843517e+00 3.75665819e-02 
341 1238.96 8.32948907e+00 4.45144773e-02 
340 1240.52 8.18609397e+00 3.87411303e-02 
339 1242.08 8.30318388e+00 3.97503238e-02 
338 1243.64 8.26908779e+00 3.25237700e-02 
337 1245.20 8.30768458e+00 3.76196010e-02 
336 1246.75 8.28919506e+00 3.79222240e-02 
335 1248.31 8.35336081e+00 2.90664091e-02 
334 1249.86 8.28211117e+00 2.67005287e-02 
333 1251.41 8.29266580e+00 2.31043284e-02 
332 1252.96 8.21030681e+00 9.65267079e-03 
331 1254.51 8.23050245e+00 4.90453172e-03 
330 1256.06 8.16854382e+00 1.84638890e-02 
329 1257.61 8.12863541e+00 1.86752140e-02 
328 1259.15 8.04967022e+00 6.53189102e-02 
327 1260.69 8.01196400e+00 8.86734792e-02 
326 1262.23 7.91483148e+00 1.35927022e-01 
325 1263.77 7.91618999e+00 1.55324444e-01 
324 1265.31 7.77572823e+00 1.95908185e-01 
323 1266.85 7.83039967e+00 2.07845092e-01 
322 1268.39 7.87181934e+00 1.91326736e-01 
321 1269.92 7.97359927e+00 1.55221052e-01 
320 1271.46 8.08134333e+00 1.07898749e-01 
319 1272.99 8.08788967e+00 5.46211559e-02 
318 1274.52 8.05332883e+00 3.41500015e-02 
317 1276.05 8.10993703e+00 1.05905146e-02 
316 1277.58 7.96669626e+00 1.18297693e-02 
315 1279.10 7.81688849e+00 2.05832550e-02 
314 1280.63 7.77443043e+00 2.72033794e-02 
313 1282.15 7.77179050e+00 3.30811557e-02 
312 1283.68 7.86545356e+00 2.92661195e-02 
311 1285.20 8.02646891e+00 4.15304088e-02 
310 1286.72 8.00673167e+00 3.57148679e-02 
309 1288.24 8.02686087e+00 4.98201117e-02 
308 1289.75 7.91316621e+00 3.86012997e-02 
307 1291.27 7.93460178e+00 4.62092284e-02 
306 1292.78 7.98179452e+00 4.32977771e-02 
305 1294.30 8.00477711e+00 4.59927193e-02 
304 1295.81 7.93061256e+00 5.13469921e-02 
303 1297.32 7.94054016e+00 4.88625137e-02 
302 1298.83 7.90380081e+00 3.85480890e-02 
301 1300.34 7.87238200e+00 3.73502794e-02 
300 1301.85 7.82257064e+00 3.70967657e-02 
299 1303.35 7.78856452e+00 4.00947110e-02 
298 1304.86 7.72495667e+00 2.12099809e-02 
297 1306.36 7.71269020e+00 1.96245953e-02 
296 1307.86 7.64593490e+00 1.13183312e-02 
295 1309.36 7.55390342e+00 1.67597135e-02 
294 1310.86 7.49164597e+00 1.89843927e-02 
293 1312.36 7.42520332e+00 2.99810792e-02 
292 1313.86 7.37247245e+00 2.34983683e-02 
291 1315.36 7.38477437e+00 1.67529930e-02 
290 1316.85 7.32872979e+00 2.69947901e-02 
289 1318.34 7.30300681e+00 2.13541699e-02 
288 1319.84 7.25433667e+00 2.54168996e-02 
287 1321.33 7.26270469e+00 3.12039673e-02 
286 1322.82 7.21207667e+00 2.28239041e-02 
285 1324.30 7.22884814e+00 2.30694491e-02 
284 1325.79 7.12148078e+00 2.21348222e-02 
283 1327.28 7.02666410e+00 3.22398821e-02 
282 1328.76 6.87814999e+00 4.70704943e-02 
281 1330.25 6.82296022e+00 5.06359771e-02 
280 1331.73 6.75024764e+00 5.26659744e-02 
279 1333.21 6.76301893e+00 5.16924413e-02 
278 1334.69 6.74080261e+00 4.71878373e-02 
277 1336.17 6.68826294e+00 4.92745631e-02 
276 1337.65 6.63548772e+00 4.93177642e-02 
275 1339.12 6.55444209e+00 4.34691199e-02 
274 1340.60 6.49732701e+00 5.43001540e-02 
273 1342.07 6.44428968e+00 5.92863203e-02 
272 1343.55 6.29366684e+00 7.87021552e-02 
271 1345.02 5.97909355e+00 1.13476995e-01 
270 1346.49 5.74797980e+00 1.34351275e-01 
269 1347.96 5.48492527e+00 1.58346444e-01 
268 1349.43 5.20179637e+00 1.95093171e-01 
267 1350.89 4.89292176e+00 2.08401690e-01 
266 1352.36 4.46855704e+00 2.54038913e-01 
265 1353.82 4.17190607e+00 2.66163160e-01 
264 1355.29 3.88973618e+00 2.98478865e-01 
263 1356.75 3.69405810e+00 3.23494251e-01 
262 1358.21 3.35414656e+00 3.55451449e-01 
261 1359.67 3.06078784e+00 3.74837871e-01 
260 1361.13 2.88630978e+00 3.83925951e-01 
259 1362.59 2.84844764e+00 3.76865572e-01 
258 1364.04 2.99560825e+00 3.74814051e-01 
257 1365.50 2.96658707e+00 3.74232522e-01 
256 1366.95 2.98403756e+00 3.74172813e-01 
255 1368.41 2.88176266e+00 3.77148057e-01 
254 1369.86 2.92735998e+00 3.70359230e-01 
253 1371.31 3.06121651e+00 3.27123955e-01 
252 1372.76 3.07556136e+00 2.93272609e-01 
251 1374.21 3.12855697e+00 2.46905914e-01 
250 1375.65 2.99637930e+00 2.20832989e-01 
249 1377.10 2.70442732e+00 2.05062623e-01 
248 1378.55 2.37706677e+00 2.14554669e-01 
247 1379.99 2.01421296e+00 2.09859498e-01 
246 1381.43 1.87563419e+00 2.28408135e-01 
245 1382.87 1.92924758e+00 2.33261369e-01 
244 1384.32 2.10293798e+00 2.21408383e-01 
243 1385.75 2.32990527e+00 2.09598420e-01 
242 1387.19 2.58620890e+00 1.87103754e-01 
241 1388.63 2.66202927e+00 1.65299977e-01 
240 1390.07 2.72610657e+00 1.74295293e-01 
239 1391.50 2.70814768e+00 1.87209176e-01 
238 1392.94 2.44978372e+00 2.19586193e-01 
237 1394.37 2.52727310e+00 2.19213984e-01 
236 1395.80 2.70716842e+00 2.16471746e-01 
235 1397.23 2.63485002e+00 2.16658799e-01 
234 1398.66 2.79042943e+00 2.11832776e-01 
233 1400.09 2.92341423e+00 2.14236456e-01 
232 1401.52 2.82024972e+00 2.27274974e-01 
231 1402.94 3.00031455e+00 2.11889200e-01 
230 1404.37 3.09141239e+00 2.11489372e-01 
229 1405.79 3.01511534e+00 2.14302857e-01 
228 1407.22 3.11358595e+00 2.11780687e-01 
227 1408.64 3.26108424e+00 1.98671309e-01 
226 1410.06 3.42265678e+00 1.80504707e-01 
225 1411.48 3.43312144e+00 1.81073143e-01 
224 1412.90 3.57544621e+00 1.73331521e-01 
223 1414.32 3.63743170e+00 1.52910382e-01 
222 1415.73 3.62425176e+00 1.65519613e-01 
221 1417.15 3.69810367e+00 1.67202529e-01 
220 1418.56 3.80458935e+00 1.51634997e-01 
219 1419.98 3.74848549e+00 1.48552709e-01 
218 1421.39 3.83162578e+00 1.40524676e-01 
217 1422.80 3.91955542e+00 1.18046474e-01 
216 1424.21 3.95468187e+00 1.26724684e-01 
215 1425.62 3.94590092e+00 1.22669829e-01 
214 1427.03 4.01615691e+00 1.17002576e-01 
213 1428.44 3.88405641e+00 1.38267102e-01 
212 1429.84 3.77302058e+00 1.62540710e-01 
211 1431.25 3.73691535e+00 1.64802217e-01 
210 1432.65 3.71981374e+00 1.85270144e-01 
209 1434.06 3.75311502e+00 1.73335899e-01 
208 1435.46 3.85263697e+00 1.64714174e-01 
207 1436.86 3.86923019e+00 1.57317365e-01 
206 1438.26 3.89100901e+00 1.49320943e-01 
205 1439.66 3.91024987e+00 1.32974846e-01 
204 1441.05 4.00795062e+00 1.14828314e-01 
203 1442.45 3.92988054e+00 1.19041860e-01 
202 1443.85 3.95045670e+00 1.23348016e-01 
201 1445.24 4.01956288e+00 1.05154838e-01 
200 1446.64 4.05980532e+00 1.09542911e-01 
199 1448.03 4.04417459e+00 1.10419161e-01 
198 1449.42 4.13324006e+00 1.04303038e-01 
197 1450.81 4.13037189e+00 9.83729135e-02 
196 1452.20 4.14331420e+00 8.83520265e-02 
195 1453.59 4.26580207e+00 6.07055742e-02 
194 1454.97 4.36887042e+00 4.48543302e-02 
193 1456.36 4.36214844e+00 4.06604687e-02 
192 1457.75 4.39893691e+00 3.83877821e-02 
191 1459.13 4.35052347e+00 4.04193267e-02 
190 1460.51 4.34007994e+00 4.59764722e-02 
189 1461.90 4.22152742e+00 4.98030554e-02 
188 1463.28 4.20356369e+00 6.41493585e-02 
187 1464.66 4.13010693e+00 7.29113239e-02 
186 1466.04 4.16635497e+00 7.39830494e-02 
185 1467.41 4.06494522e+00 8.45649746e-02 
184 1468.79 4.02824688e+00 8.57547909e-02 
183 1470.17 3.97054108e+00 8.43472280e-02 
182 1471.54 4.01695617e+00 8.26990243e-02 
181 1472.92 4.05604370e+00 6.90584402e-02 
180 1474.29 4.13325787e+00 5.55453119e-02 
179 1475.66 4.11811256e+00 4.52049815e-02 
178 1477.03 4.08676799e+00 5.46489820e-02 
177 1478.40 4.04447707e+00 5.27606211e-02 
176 1479.77 4.09622924e+00 4.91268930e-02 
175 1481.14 4.07848628e+00 4.19254236e-02 
174 1482.51 4.15944592e+00 3.97240596e-02 
173 1483.87 4.10145601e+00 3.71251723e-02 
172 1485.24 4.07214467e+00 4.18269480e-02 
171 1486.60 4.02170205e+00 3.23415901e-02 
170 1487.96 4.06751077e+00 3.22425456e-02 
169 1489.32 4.02652391e+00 1.81799912e-02 
168 1490.68 4.16129207e+00 1.97668311e-02 
167 1492.04 4.14041090e+00 1.12429753e-02 
166 1493.40 4.16044998e+00 1.18387520e-02 
165 1494.76 4.10900450e+00 2.35389741e-02 
164 1496.12 4.14486329e+00 1.55889595e-02 
163 1497.47 4.11002271e+00 2.22458732e-02 
162 1498.83 4.17379316e+00 2.29499464e-02 
161 1500.18 4.03040187e+00 1.60274963e-02 
160 1501.53 3.97365387e+00 5.93007185e-03 
159 1502.89 3.85423501e+00 7.19945684e-03 
158 1504.24 3.86964822e+00 4.85850872e-03 
157 1505.59 3.88873044e+00 1.66178944e-02 
156 1506.93 4.00109267e+00 1.09342917e-02 
155 1508.28 4.01954134e+00 2.01573156e-02 
154 1509.63 4.04898787e+00 1.87745955e-02 
153 1510.97 3.99436339e+00 2.36314123e-02 
152 1512.32 4.03834089e+00 1.89387593e-02 
151 1513.66 3.95688128e+00 1.95327831e-02 
150 1515.00 4.00083852e+00 6.95603118e-03 
149 1516.34 3.96677367e+00 2.06062994e-02 
148 1517.69 3.99132434e+00 9.28008980e-03 
147 1519.02 3.93380690e+00 1.55562169e-02 
146 1520.36 3.95111537e+00 1.10038204e-02 
145 1521.70 3.89145168e+00 2.06847101e-02 
144 1523.04 3.95431105e+00 1.72780304e-02 
143 1524.37 3.90458615e+00 2.60686043e-02 
142 1525.71 3.94445276e+00 2.30076193e-02 
141 1527.04 3.87467241e+00 2.45094533e-02 
140 1528.37 3.90753841e+00 1.27689274e-02 
139 1529.70 3.83132656e+00 2.05616040e-02 
138 1531.03 3.86825236e+00 1.25297373e-02 
137 1532.36 3.80964128e+00 1.38704274e-02 
136 1533.69 3.84794052e+00 4.79793715e-03 
135 1535.02 3.76896493e+00 1.56447144e-02 
134 1536.34 3.79875747e+00 9.32897954e-03 
133 1537.67 3.72138564e+00 2.17616046e-02 
132 1538.99 3.76717567e+00 1.49458874e-02 
131 1540.31 3.71697807e+00 1.72250245e-02 
130 1541.64 3.75463724e+00 1.96682085e-02 
129 1542.96 3.72684431e+00 2.74451300e-02 
128 1544.28 3.75986695e+00 2.76118139e-02 
127 1545.60 3.68226917e+00 3.61755805e-02 
126 1546.91 3.73093367e+00 1.98363416e-02 
125 1548.23 3.64490978e+00 1.79849152e-02 
124 1549.55 3.66710448e+00 1.89392050e-02 
123 1550.86 3.58599774e+00 2.42461394e-02 
122 1552.18 3.60985223e+00 1.47620880e-02 
121 1553.49 3.55128924e+00 2.08536271e-02 
120 1554.80 3.61995093e+00 1.07008129e-02 
119 1556.11 3.55334401e+00 1.35823871e-02 
118 1557.42 3.59531538e+00 1.10012229e-02 
117 1558.73 3.52447851e+00 1.85521739e-02 
116 1560.04 3.54567488e+00 1.99667595e-02 
115 1561.34 3.46303868e+00 1.86334831e-02 
114 1562.65 3.51808373e+00 1.53828946e-02 
113 1563.95 3.44028592e+00 1.83421132e-02 
112 1565.26 3.50640082e+00 1.32089729e-02 
111 1566.56 3.38650632e+00 1.08487544e-02 
110 1567.86 3.41800308e+00 1.09546986e-02 
109 1569.16 3.32161864e+00 2.43107466e-02 
108 1570.46 3.32188884e+00 3.67675567e-02 
107 1571.76 3.21739769e+00 2.68464739e-02 
106 1573.05 3.20427990e+00 2.57607282e-02 
105 1574.35 3.09867636e+00 2.44119729e-02 
104 1575.64 3.12033351e+00 1.70765578e-02 
103 1576.94 3.07754024e+00 1.93080441e-02 
102 1578.23 3.14300227e+00 1.91162705e-02 
101 1579.52 3.10614951e+00 1.07049675e-02 
100 1580.81 3.18122959e+00 1.75364269e-02 
99 1582.10 3.11520735e+00 9.45090558e-03 
98 1583.39 3.17317788e+00 1.13821832e-02 
97 1584.68 3.10058348e+00 9.72494263e-03 
96 1585.97 3.08952141e+00 9.21590079e-03 
95 1587.25 2.98181637e+00 1.42452827e-02 
94 1588.54 3.00126203e+00 1.18826666e-02 
93 1589.82 2.93688575e+00 1.32477623e-02 
92 1591.10 3.03197098e+00 9.59883426e-03 
91 1592.38 3.00180801e+00 1.20407641e-02 
90 1593.66 3.06219133e+00 9.19599540e-03 
89 1594.94 2.98109325e+00 1.90416076e-02 
88 1596.22 3.02604270e+00 1.21802311e-02 
87 1597.50 2.92675837e+00 1.28914145e-02 
86 1598.77 2.95615292e+00 2.74812025e-02 
85 1600.05 2.86030102e+00 3.00544473e-02 
84 1601.32 2.88882319e+00 3.90755140e-02 
83 1602.59 2.80512015e+00 3.46203260e-02 
82 1603.86 2.86395717e+00 3.89926899e-02 
81 1605.13 2.75198484e+00 3.20476244e-02 
80 1606.40 2.81307713e+00 3.61424175e-02 
79 1607.67 2.70993614e+00 2.85417354e-02 
78 1608.94 2.75456103e+00 2.92562383e-02 
77 1610.20 2.68266916e+00 1.75743518e-02 
76 1611.47 2.74231505e+00 2.35173355e-02 
75 1612.73 2.66102687e+00 1.29384408e-02 
74 1614.00 2.70349375e+00 1.51251914e-02 
73 1615.26 2.61620609e+00 8.56276644e-03 
72 1616.52 2.64206036e+00 8.38584281e-03 
71 1617.78 2.53442359e+00 1.28641449e-02 
70 1619.03 2.58153908e+00 9.07579021e-03 
69 1620.29 2.51620809e+00 1.67443239e-02 
68 1621.55 2.57846674e+00 1.49786222e-02 
67 1622.80 2.51295010e+00 1.67900747e-02 
66 1624.06 2.57180087e+00 1.54958184e-02 
65 1625.31 2.47034685e+00 1.36962793e-02 
64 1626.56 2.53547168e+00 1.24580521e-02 
63 1627.81 2.43671417e+00 1.45768948e-02 
62 1629.06 2.46640810e+00 1.23589833e-02 
61 1630.31 2.37441977e+00 1.11908808e-02 
