% C0 (TOA Count Rate, /ms) for 4STAR NIR spectrometer (512 channels) derived from 20160113starsunFORJcorrected.mat and recorded on 2016-01-22 13:28:42.
% Data outside 2.0x the STD of 501 nm Langley residuals were screened out.
Pix Wavelength C0 C0err
511 949.79 4.98582017e+00 1.49574605e-01 
510 949.79 5.15575273e+00 1.54672582e-01 
509 951.68 5.55131802e+00 1.66539541e-01 
508 953.57 5.61882131e+00 1.68564639e-01 
507 955.46 6.10251822e+00 1.83075547e-01 
506 957.34 6.21717236e+00 1.86515171e-01 
505 959.22 6.72260824e+00 2.01678247e-01 
504 961.10 6.81989699e+00 2.04596910e-01 
503 962.98 7.28368032e+00 2.18510410e-01 
502 964.85 7.31093348e+00 2.19328004e-01 
501 966.72 7.85685353e+00 2.35705606e-01 
500 968.59 7.90903239e+00 2.37270972e-01 
499 970.45 8.31555638e+00 2.49466692e-01 
498 972.32 8.25716744e+00 2.47715023e-01 
497 974.18 8.58684611e+00 2.57605383e-01 
496 976.04 8.50651730e+00 2.55195519e-01 
495 977.89 8.85281618e+00 2.65584486e-01 
494 979.74 8.77861547e+00 2.63358464e-01 
493 981.59 9.06308035e+00 2.71892411e-01 
492 983.44 8.95850310e+00 2.68755093e-01 
491 985.29 9.21178832e+00 2.76353650e-01 
490 987.13 9.01497144e+00 2.70449143e-01 
489 988.97 9.26463200e+00 2.77938960e-01 
488 990.81 9.06658818e+00 2.71997646e-01 
487 992.65 9.23517966e+00 2.77055390e-01 
486 994.48 9.04386183e+00 2.71315855e-01 
485 996.31 9.20104236e+00 2.76031271e-01 
484 998.14 8.96010811e+00 2.68803243e-01 
483 999.97 9.11460899e+00 2.73438270e-01 
482 1001.79 8.83357104e+00 2.65007131e-01 
481 1003.62 8.90555391e+00 2.67166617e-01 
480 1005.44 8.69100538e+00 2.60730161e-01 
479 1007.25 8.93316276e+00 2.67994883e-01 
478 1009.07 8.74300880e+00 2.62290264e-01 
477 1010.88 8.90231199e+00 2.67069360e-01 
476 1012.69 8.64032722e+00 2.59209817e-01 
475 1014.50 8.74975056e+00 2.62492517e-01 
474 1016.31 8.52738900e+00 2.55821670e-01 
473 1018.11 8.65683389e+00 2.59705017e-01 
472 1019.91 8.41465487e+00 2.52439646e-01 
471 1021.71 8.55994952e+00 2.56798486e-01 
470 1023.51 8.34308884e+00 2.50292665e-01 
469 1025.30 8.51880214e+00 2.55564064e-01 
468 1027.09 8.41996622e+00 2.52598987e-01 
467 1028.88 8.57492965e+00 2.57247890e-01 
466 1030.67 8.42540302e+00 2.52762091e-01 
465 1032.46 8.59254978e+00 2.57776493e-01 
464 1034.24 8.45852448e+00 2.53755734e-01 
463 1036.02 8.64664583e+00 2.59399375e-01 
462 1037.80 8.53694076e+00 2.56108223e-01 
461 1039.58 8.75174622e+00 2.62552386e-01 
460 1041.35 8.61740782e+00 2.58522235e-01 
459 1043.12 8.77420041e+00 2.63226012e-01 
458 1044.89 8.68616332e+00 2.60584900e-01 
457 1046.66 8.89879666e+00 2.66963900e-01 
456 1048.43 8.83161893e+00 2.64948568e-01 
455 1050.19 9.05618078e+00 2.71685423e-01 
454 1051.95 8.93264763e+00 2.67979429e-01 
453 1053.71 9.18297970e+00 2.75489391e-01 
452 1055.47 9.01628036e+00 2.70488411e-01 
451 1057.23 9.14640306e+00 2.74392092e-01 
450 1058.98 9.00985111e+00 2.70295533e-01 
449 1060.73 9.19877346e+00 2.75963204e-01 
448 1062.48 9.00845370e+00 2.70253611e-01 
447 1064.23 9.15300775e+00 2.74590233e-01 
446 1065.97 8.88085870e+00 2.66425761e-01 
445 1067.71 8.94224822e+00 2.68267446e-01 
444 1069.46 8.72688308e+00 2.61806492e-01 
443 1071.19 8.83001463e+00 2.64900439e-01 
442 1072.93 8.65904083e+00 2.59771225e-01 
441 1074.67 8.72872598e+00 2.61861779e-01 
440 1076.40 8.54099125e+00 2.56229737e-01 
439 1078.13 8.60435460e+00 2.58130638e-01 
438 1079.86 8.36271974e+00 2.50881592e-01 
437 1081.58 8.45010814e+00 2.53503244e-01 
436 1083.31 8.35650105e+00 2.50695031e-01 
435 1085.03 8.54909556e+00 2.56472867e-01 
434 1086.75 8.47919217e+00 2.54375765e-01 
433 1088.47 8.61832268e+00 2.58549680e-01 
432 1090.19 8.50321541e+00 2.55096462e-01 
431 1091.90 8.59847220e+00 2.57954166e-01 
430 1093.61 8.45745239e+00 2.53723572e-01 
429 1095.33 8.67733634e+00 2.60320090e-01 
428 1097.03 8.70993580e+00 2.61298074e-01 
427 1098.74 8.94318588e+00 2.68295576e-01 
426 1100.45 8.94884762e+00 2.68465429e-01 
425 1102.15 9.22702310e+00 2.76810693e-01 
424 1103.85 9.20009539e+00 2.76002862e-01 
423 1105.55 9.42234111e+00 2.82670233e-01 
422 1107.25 9.31076528e+00 2.79322958e-01 
421 1108.94 9.39936055e+00 2.81980816e-01 
420 1110.64 9.12879918e+00 2.73863975e-01 
419 1112.33 9.00091806e+00 2.70027542e-01 
418 1114.02 8.48993082e+00 2.54697925e-01 
417 1115.70 8.34259568e+00 2.50277871e-01 
416 1117.39 8.01762425e+00 2.40528728e-01 
415 1119.07 7.91920529e+00 2.37576159e-01 
414 1120.76 7.71341298e+00 2.31402390e-01 
413 1122.44 7.69149212e+00 2.30744764e-01 
412 1124.12 7.66040076e+00 2.29812023e-01 
411 1125.79 7.95601736e+00 2.38680521e-01 
410 1127.47 8.21174137e+00 2.46352241e-01 
409 1129.14 8.62524826e+00 2.58757448e-01 
408 1130.81 8.11597306e+00 2.43479192e-01 
407 1132.48 7.88983245e+00 2.36694974e-01 
406 1134.15 7.73191798e+00 2.31957539e-01 
405 1135.81 8.17419958e+00 2.45225987e-01 
404 1137.48 8.85373484e+00 2.65612045e-01 
403 1139.14 9.18028472e+00 2.75408541e-01 
402 1140.80 8.89732463e+00 2.66919739e-01 
401 1142.46 8.76021206e+00 2.62806362e-01 
400 1144.12 8.43082472e+00 2.52924742e-01 
399 1145.77 8.43443112e+00 2.53032934e-01 
398 1147.43 8.45845859e+00 2.53753758e-01 
397 1149.08 8.67620005e+00 2.60286001e-01 
396 1150.73 8.66232709e+00 2.59869813e-01 
395 1152.38 8.93258732e+00 2.67977620e-01 
394 1154.02 8.96409648e+00 2.68922894e-01 
393 1155.67 9.25003940e+00 2.77501182e-01 
392 1157.31 9.17062246e+00 2.75118674e-01 
391 1158.95 9.30837535e+00 2.79251261e-01 
390 1160.59 9.29523890e+00 2.78857167e-01 
389 1162.23 9.49582317e+00 2.84874695e-01 
388 1163.87 9.42964384e+00 2.82889315e-01 
387 1165.50 9.51574211e+00 2.85472263e-01 
386 1167.13 9.40397920e+00 2.82119376e-01 
385 1168.76 9.50100583e+00 2.85030175e-01 
384 1170.39 9.36601276e+00 2.80980383e-01 
383 1172.02 9.34735572e+00 2.80420672e-01 
382 1173.65 9.18932761e+00 2.75679828e-01 
381 1175.27 9.18572275e+00 2.75571683e-01 
380 1176.90 9.07399599e+00 2.72219880e-01 
379 1178.52 9.00037076e+00 2.70011123e-01 
378 1180.14 8.75576307e+00 2.62672892e-01 
377 1181.75 8.72094540e+00 2.61628362e-01 
376 1183.37 8.53719912e+00 2.56115974e-01 
375 1184.99 8.55035786e+00 2.56510736e-01 
374 1186.60 8.42701564e+00 2.52810469e-01 
373 1188.21 8.41035702e+00 2.52310710e-01 
372 1189.82 8.33825053e+00 2.50147516e-01 
371 1191.43 8.55803663e+00 2.56741099e-01 
370 1193.04 8.45763694e+00 2.53729108e-01 
369 1194.64 8.42879726e+00 2.52863918e-01 
368 1196.24 8.23225891e+00 2.46967767e-01 
367 1197.85 8.30553087e+00 2.49165926e-01 
366 1199.45 8.21485856e+00 2.46445757e-01 
365 1201.05 8.28234889e+00 2.48470467e-01 
364 1202.64 8.20596976e+00 2.46179093e-01 
363 1204.24 8.24587416e+00 2.47376225e-01 
362 1205.83 8.17964043e+00 2.45389213e-01 
361 1207.43 8.17969907e+00 2.45390972e-01 
360 1209.02 8.12338916e+00 2.43701675e-01 
359 1210.61 8.23613835e+00 2.47084150e-01 
358 1212.19 8.23155237e+00 2.46946571e-01 
357 1213.78 8.39146329e+00 2.51743899e-01 
356 1215.37 8.31821148e+00 2.49546345e-01 
355 1216.95 8.37474329e+00 2.51242299e-01 
354 1218.53 8.34336085e+00 2.50300825e-01 
353 1220.11 8.42721212e+00 2.52816364e-01 
352 1221.69 8.38381666e+00 2.51514500e-01 
351 1223.27 8.42354420e+00 2.52706326e-01 
350 1224.84 8.42378508e+00 2.52713552e-01 
349 1226.42 8.47172266e+00 2.54151680e-01 
348 1227.99 8.47001374e+00 2.54100412e-01 
347 1229.56 8.60741028e+00 2.58222309e-01 
346 1231.13 8.53940847e+00 2.56182254e-01 
345 1232.70 8.62280928e+00 2.58684278e-01 
344 1234.27 8.61143251e+00 2.58342975e-01 
343 1235.84 8.63223130e+00 2.58966939e-01 
342 1237.40 8.57769310e+00 2.57330793e-01 
341 1238.96 8.56773972e+00 2.57032192e-01 
340 1240.52 8.41319915e+00 2.52395975e-01 
339 1242.08 8.51665216e+00 2.55499565e-01 
338 1243.64 8.49837304e+00 2.54951191e-01 
337 1245.20 8.53726616e+00 2.56117985e-01 
336 1246.75 8.50666845e+00 2.55200053e-01 
335 1248.31 8.57459910e+00 2.57237973e-01 
334 1249.86 8.52736117e+00 2.55820835e-01 
333 1251.41 8.58532697e+00 2.57559809e-01 
332 1252.96 8.52225604e+00 2.55667681e-01 
331 1254.51 8.53559371e+00 2.56067811e-01 
330 1256.06 8.44800822e+00 2.53440247e-01 
329 1257.61 8.42211110e+00 2.52663333e-01 
328 1259.15 8.31111313e+00 2.49333394e-01 
327 1260.69 8.26057172e+00 2.47817152e-01 
326 1262.23 8.12033582e+00 2.43610075e-01 
325 1263.77 8.06204632e+00 2.41861389e-01 
324 1265.31 7.86323128e+00 2.35896938e-01 
323 1266.85 7.86053001e+00 2.35815900e-01 
322 1268.39 7.90125100e+00 2.37037530e-01 
321 1269.92 8.00808694e+00 2.40242608e-01 
320 1271.46 8.19496535e+00 2.45848961e-01 
319 1272.99 8.26173149e+00 2.47851945e-01 
318 1274.52 8.25176825e+00 2.47553047e-01 
317 1276.05 8.31880327e+00 2.49564098e-01 
316 1277.58 8.17671935e+00 2.45301581e-01 
315 1279.10 8.01199484e+00 2.40359845e-01 
314 1280.63 7.93071359e+00 2.37921408e-01 
313 1282.15 7.91053765e+00 2.37316130e-01 
312 1283.68 8.00037825e+00 2.40011348e-01 
311 1285.20 8.20546402e+00 2.46163921e-01 
310 1286.72 8.18268825e+00 2.45480648e-01 
309 1288.24 8.20364014e+00 2.46109204e-01 
308 1289.75 8.10803916e+00 2.43241175e-01 
307 1291.27 8.14584365e+00 2.44375309e-01 
306 1292.78 8.16970372e+00 2.45091112e-01 
305 1294.30 8.17733358e+00 2.45320007e-01 
304 1295.81 8.09389006e+00 2.42816702e-01 
303 1297.32 8.08762095e+00 2.42628628e-01 
302 1298.83 8.04018184e+00 2.41205455e-01 
301 1300.34 7.98370062e+00 2.39511019e-01 
300 1301.85 7.92704342e+00 2.37811303e-01 
299 1303.35 7.87004202e+00 2.36101261e-01 
298 1304.86 7.77000561e+00 2.33100168e-01 
297 1306.36 7.74758939e+00 2.32427682e-01 
296 1307.86 7.69689348e+00 2.30906804e-01 
295 1309.36 7.60381375e+00 2.28114412e-01 
294 1310.86 7.50695685e+00 2.25208705e-01 
293 1312.36 7.43605243e+00 2.23081573e-01 
292 1313.86 7.38252302e+00 2.21475691e-01 
291 1315.36 7.38696713e+00 2.21609014e-01 
290 1316.85 7.33823103e+00 2.20146931e-01 
289 1318.34 7.30519147e+00 2.19155744e-01 
288 1319.84 7.23941751e+00 2.17182525e-01 
287 1321.33 7.24141675e+00 2.17242502e-01 
286 1322.82 7.18703216e+00 2.15610965e-01 
285 1324.30 7.15017090e+00 2.14505127e-01 
284 1325.79 6.99530621e+00 2.09859186e-01 
283 1327.28 6.84444672e+00 2.05333401e-01 
282 1328.76 6.62421345e+00 1.98726403e-01 
281 1330.25 6.54304572e+00 1.96291372e-01 
280 1331.73 6.48965228e+00 1.94689568e-01 
279 1333.21 6.46714006e+00 1.94014202e-01 
278 1334.69 6.43456948e+00 1.93037084e-01 
277 1336.17 6.37069256e+00 1.91120777e-01 
276 1337.65 6.28013836e+00 1.88404151e-01 
275 1339.12 6.21357396e+00 1.86407219e-01 
274 1340.60 6.07214205e+00 1.82164261e-01 
273 1342.07 5.90040232e+00 1.77012070e-01 
272 1343.55 5.65395659e+00 1.69618698e-01 
271 1345.02 5.10536624e+00 1.53160987e-01 
270 1346.49 4.74677612e+00 1.42403284e-01 
269 1347.96 4.32955106e+00 1.29886532e-01 
268 1349.43 3.88187802e+00 1.16456341e-01 
267 1350.89 3.44465534e+00 1.03339660e-01 
266 1352.36 2.86331490e+00 8.58994471e-02 
265 1353.82 2.52055391e+00 7.56166174e-02 
264 1355.29 2.01702347e+00 6.05107042e-02 
263 1356.75 1.93182476e+00 5.79547429e-02 
262 1358.21 1.58660427e+00 4.75981282e-02 
261 1359.67 1.03374008e+00 3.10122023e-02 
260 1361.13 9.11211522e-01 2.73363457e-02 
259 1362.59 1.01674809e+00 3.05024427e-02 
258 1364.04 1.31599966e+00 3.94799898e-02 
257 1365.50 1.28927658e+00 3.86782973e-02 
256 1366.95 9.05687604e-01 2.71706281e-02 
255 1368.41 9.46215304e-01 2.83864591e-02 
254 1369.86 1.21642630e+00 3.64927890e-02 
253 1371.31 1.47021346e+00 4.41064038e-02 
252 1372.76 1.32514733e+00 3.97544200e-02 
251 1374.21 1.89381783e+00 5.68145349e-02 
250 1375.65 1.93665756e+00 5.80997269e-02 
249 1377.10 1.75960121e+00 5.27880364e-02 
248 1378.55 1.33886610e+00 4.01659831e-02 
247 1379.99 1.08263399e+00 3.24790196e-02 
246 1381.43 6.26438717e-01 1.87931615e-02 
245 1382.87 8.62765699e-01 2.58829710e-02 
244 1384.32 9.88458343e-01 2.96537503e-02 
243 1385.75 1.26623244e+00 3.79869733e-02 
242 1387.19 1.64021055e+00 4.92063164e-02 
241 1388.63 1.80674301e+00 5.42022902e-02 
240 1390.07 1.86954501e+00 5.60863503e-02 
239 1391.50 1.78384338e+00 5.35153015e-02 
238 1392.94 1.19025807e+00 3.57077420e-02 
237 1394.37 1.47010914e+00 4.41032743e-02 
236 1395.80 1.63809825e+00 4.91429476e-02 
235 1397.23 1.52907799e+00 4.58723396e-02 
234 1398.66 1.53758832e+00 4.61276496e-02 
233 1400.09 1.79137578e+00 5.37412733e-02 
232 1401.52 1.60722032e+00 4.82166096e-02 
231 1402.94 1.81267890e+00 5.43803670e-02 
230 1404.37 1.94653997e+00 5.83961990e-02 
229 1405.79 1.84349756e+00 5.53049268e-02 
228 1407.22 1.93305396e+00 5.79916189e-02 
227 1408.64 2.10023443e+00 6.30070330e-02 
226 1410.06 2.29042971e+00 6.87128914e-02 
225 1411.48 2.29328708e+00 6.87986123e-02 
224 1412.90 2.48597819e+00 7.45793456e-02 
223 1414.32 2.62970857e+00 7.88912570e-02 
222 1415.73 2.55433364e+00 7.66300091e-02 
221 1417.15 2.60676187e+00 7.82028562e-02 
220 1418.56 2.73493738e+00 8.20481213e-02 
219 1419.98 2.69620994e+00 8.08862982e-02 
218 1421.39 2.84464235e+00 8.53392706e-02 
217 1422.80 3.07268820e+00 9.21806460e-02 
216 1424.21 3.12067268e+00 9.36201803e-02 
215 1425.62 3.10746788e+00 9.32240364e-02 
214 1427.03 3.23966148e+00 9.71898445e-02 
213 1428.44 3.09989328e+00 9.29967985e-02 
212 1429.84 2.96246463e+00 8.88739389e-02 
211 1431.25 2.97785567e+00 8.93356701e-02 
210 1432.65 2.95975022e+00 8.87925066e-02 
209 1434.06 3.01067519e+00 9.03202558e-02 
208 1435.46 3.11892423e+00 9.35677269e-02 
207 1436.86 3.16718526e+00 9.50155579e-02 
206 1438.26 3.20386121e+00 9.61158363e-02 
205 1439.66 3.25790834e+00 9.77372503e-02 
204 1441.05 3.42588149e+00 1.02776445e-01 
203 1442.45 3.34893720e+00 1.00468116e-01 
202 1443.85 3.36751326e+00 1.01025398e-01 
201 1445.24 3.50020959e+00 1.05006288e-01 
200 1446.64 3.54243321e+00 1.06272996e-01 
199 1448.03 3.48854804e+00 1.04656441e-01 
198 1449.42 3.60735038e+00 1.08220511e-01 
197 1450.81 3.65745771e+00 1.09723731e-01 
196 1452.20 3.72006871e+00 1.11602061e-01 
195 1453.59 3.97571540e+00 1.19271462e-01 
194 1454.97 4.17327090e+00 1.25198127e-01 
193 1456.36 4.19832005e+00 1.25949601e-01 
192 1457.75 4.23496203e+00 1.27048861e-01 
191 1459.13 4.19623326e+00 1.25886998e-01 
190 1460.51 4.15369323e+00 1.24610797e-01 
189 1461.90 3.99156220e+00 1.19746866e-01 
188 1463.28 3.90304513e+00 1.17091354e-01 
187 1464.66 3.79684990e+00 1.13905497e-01 
186 1466.04 3.82964539e+00 1.14889362e-01 
185 1467.41 3.67997667e+00 1.10399300e-01 
184 1468.79 3.61670183e+00 1.08501055e-01 
183 1470.17 3.56274694e+00 1.06882408e-01 
182 1471.54 3.61599841e+00 1.08479952e-01 
181 1472.92 3.71724662e+00 1.11517398e-01 
180 1474.29 3.86275048e+00 1.15882514e-01 
179 1475.66 3.88413580e+00 1.16524074e-01 
178 1477.03 3.82310844e+00 1.14693253e-01 
177 1478.40 3.78178661e+00 1.13453598e-01 
176 1479.77 3.86587287e+00 1.15976186e-01 
175 1481.14 3.88157660e+00 1.16447298e-01 
174 1482.51 3.97534752e+00 1.19260425e-01 
173 1483.87 3.94473610e+00 1.18342083e-01 
172 1485.24 3.91125023e+00 1.17337507e-01 
171 1486.60 3.87490902e+00 1.16247271e-01 
170 1487.96 3.94306208e+00 1.18291863e-01 
169 1489.32 3.97240849e+00 1.19172255e-01 
168 1490.69 4.14839972e+00 1.24451991e-01 
167 1492.04 4.17238868e+00 1.25171660e-01 
166 1493.40 4.22781802e+00 1.26834540e-01 
165 1494.76 4.21934266e+00 1.26580280e-01 
164 1496.12 4.25008165e+00 1.27502449e-01 
163 1497.47 4.22570661e+00 1.26771198e-01 
162 1498.83 4.31659600e+00 1.29497880e-01 
161 1500.18 4.16541195e+00 1.24962359e-01 
160 1501.53 4.08968740e+00 1.22690622e-01 
159 1502.89 3.97681079e+00 1.19304324e-01 
158 1504.24 4.01962448e+00 1.20588734e-01 
157 1505.59 4.05194657e+00 1.21558397e-01 
156 1506.93 4.17249786e+00 1.25174936e-01 
155 1508.28 4.20904869e+00 1.26271461e-01 
154 1509.63 4.24110542e+00 1.27233163e-01 
153 1510.97 4.20626860e+00 1.26188058e-01 
152 1512.32 4.27142558e+00 1.28142767e-01 
151 1513.66 4.20350729e+00 1.26105219e-01 
150 1515.00 4.26014055e+00 1.27804216e-01 
149 1516.34 4.21511197e+00 1.26453359e-01 
148 1517.69 4.22408212e+00 1.26722464e-01 
147 1519.02 4.15089984e+00 1.24526995e-01 
146 1520.36 4.17125564e+00 1.25137669e-01 
145 1521.70 4.11831667e+00 1.23549500e-01 
144 1523.04 4.17932470e+00 1.25379741e-01 
143 1524.37 4.14039283e+00 1.24211785e-01 
142 1525.71 4.18889823e+00 1.25666947e-01 
141 1527.04 4.12330359e+00 1.23699108e-01 
140 1528.37 4.14871809e+00 1.24461543e-01 
139 1529.70 4.07171216e+00 1.22151365e-01 
138 1531.03 4.11490022e+00 1.23447007e-01 
137 1532.36 4.06417372e+00 1.21925212e-01 
136 1533.69 4.10237042e+00 1.23071112e-01 
135 1535.02 4.01531029e+00 1.20459309e-01 
134 1536.34 4.03496206e+00 1.21048862e-01 
133 1537.67 3.96744700e+00 1.19023410e-01 
132 1538.99 4.00284501e+00 1.20085350e-01 
131 1540.31 3.95773451e+00 1.18732035e-01 
130 1541.64 4.01243290e+00 1.20372987e-01 
129 1542.96 3.97785176e+00 1.19335553e-01 
128 1544.28 4.01435769e+00 1.20430731e-01 
127 1545.60 3.93027881e+00 1.17908364e-01 
126 1546.91 3.97405017e+00 1.19221505e-01 
125 1548.23 3.89650243e+00 1.16895073e-01 
124 1549.55 3.94580240e+00 1.18374072e-01 
123 1550.86 3.87955336e+00 1.16386601e-01 
122 1552.18 3.90215858e+00 1.17064757e-01 
121 1553.49 3.84445526e+00 1.15333658e-01 
120 1554.80 3.88473451e+00 1.16542035e-01 
119 1556.11 3.79959632e+00 1.13987890e-01 
118 1557.42 3.83729519e+00 1.15118856e-01 
117 1558.73 3.76448315e+00 1.12934495e-01 
116 1560.04 3.79528008e+00 1.13858402e-01 
115 1561.34 3.71032272e+00 1.11309682e-01 
114 1562.65 3.76799123e+00 1.13039737e-01 
113 1563.95 3.68553275e+00 1.10565982e-01 
112 1565.26 3.73888833e+00 1.12166650e-01 
111 1566.56 3.62255428e+00 1.08676629e-01 
110 1567.86 3.64732791e+00 1.09419837e-01 
109 1569.16 3.54541545e+00 1.06362463e-01 
108 1570.46 3.54270191e+00 1.06281057e-01 
107 1571.76 3.45189480e+00 1.03556844e-01 
106 1573.05 3.42729079e+00 1.02818724e-01 
105 1574.35 3.32274997e+00 9.96824990e-02 
104 1575.64 3.34704236e+00 1.00411271e-01 
103 1576.94 3.30655741e+00 9.91967223e-02 
102 1578.23 3.37637307e+00 1.01291192e-01 
101 1579.52 3.35430366e+00 1.00629110e-01 
100 1580.81 3.42186620e+00 1.02655986e-01 
99 1582.10 3.35404053e+00 1.00621216e-01 
98 1583.39 3.41000355e+00 1.02300107e-01 
97 1584.68 3.31702436e+00 9.95107307e-02 
96 1585.97 3.29802197e+00 9.89406591e-02 
95 1587.25 3.18694694e+00 9.56084083e-02 
94 1588.54 3.19578008e+00 9.58734024e-02 
93 1589.82 3.12091030e+00 9.36273091e-02 
92 1591.10 3.21430595e+00 9.64291784e-02 
91 1592.38 3.17327857e+00 9.51983570e-02 
90 1593.66 3.22816836e+00 9.68450507e-02 
89 1594.94 3.13745055e+00 9.41235164e-02 
88 1596.22 3.15707634e+00 9.47122901e-02 
87 1597.50 3.05361873e+00 9.16085620e-02 
86 1598.77 3.06156542e+00 9.18469626e-02 
85 1600.05 2.95391786e+00 8.86175358e-02 
84 1601.32 2.97919357e+00 8.93758072e-02 
83 1602.59 2.90560337e+00 8.71681012e-02 
82 1603.86 2.96151821e+00 8.88455464e-02 
81 1605.13 2.86029605e+00 8.58088814e-02 
80 1606.40 2.91827566e+00 8.75482699e-02 
79 1607.67 2.82081389e+00 8.46244167e-02 
78 1608.94 2.86093453e+00 8.58280358e-02 
77 1610.20 2.80040338e+00 8.40121014e-02 
76 1611.47 2.86966747e+00 8.60900241e-02 
75 1612.73 2.80775117e+00 8.42325352e-02 
74 1614.00 2.86264471e+00 8.58793412e-02 
73 1615.26 2.78019401e+00 8.34058203e-02 
72 1616.52 2.81212343e+00 8.43637029e-02 
71 1617.78 2.70372348e+00 8.11117045e-02 
70 1619.03 2.74348928e+00 8.23046785e-02 
69 1620.29 2.68060502e+00 8.04181505e-02 
68 1621.55 2.74241555e+00 8.22724665e-02 
67 1622.80 2.68664894e+00 8.05994683e-02 
66 1624.06 2.76614309e+00 8.29842928e-02 
65 1625.31 2.67901937e+00 8.03705812e-02 
64 1626.56 2.74222532e+00 8.22667597e-02 
63 1627.81 2.63954884e+00 7.91864652e-02 
62 1629.06 2.65273087e+00 7.95819262e-02 
61 1630.31 2.55626513e+00 7.66879539e-02 
60 1631.56 2.57353596e+00 7.72060789e-02 
59 1632.80 2.47624582e+00 7.42873746e-02 
58 1634.05 2.51541591e+00 7.54624773e-02 
57 1635.29 2.40435267e+00 7.21305802e-02 
56 1636.53 2.41963748e+00 7.25891243e-02 
55 1637.77 2.30128165e+00 6.90384496e-02 
54 1639.01 2.32033984e+00 6.96101953e-02 
53 1640.25 2.24304473e+00 6.72913420e-02 
52 1641.49 2.27034728e+00 6.81104185e-02 
51 1642.73 2.19894355e+00 6.59683064e-02 
