% C0 (TOA Count Rate, /ms) for 4STAR VIS spectrometer (1044 channels) derived from 20160426starsun.mat and recorded on 2016-04-30 23:11:25.
% Data outside 2.0x the STD of 501 nm Langley residuals were screened out.
Pix Wavelength C0 C0err
0 173.18 -1.00000000e+00 -1.00000000e+00 
1 173.97 9.79286602e+08 2.93785981e+07 
2 174.77 8.62415478e+08 2.58724644e+07 
3 175.56 1.72760592e+09 5.18281776e+07 
4 176.36 1.10224467e+11 3.30673402e+09 
5 177.15 1.19643505e+11 3.58930515e+09 
6 177.94 1.25829612e+11 3.77488837e+09 
7 178.74 1.26569453e+11 3.79708359e+09 
8 179.53 1.27979989e+11 3.83939968e+09 
9 180.33 1.07723328e+11 3.23169983e+09 
10 181.12 5.59532799e+10 1.67859840e+09 
11 181.92 2.11419043e+10 6.34257129e+08 
12 182.71 9.76020225e+09 2.92806067e+08 
13 183.51 5.04374410e+09 1.51312323e+08 
14 184.30 3.38495742e+09 1.01548723e+08 
15 185.10 2.36020500e+09 7.08061499e+07 
16 185.89 1.74740046e+09 5.24220137e+07 
17 186.69 1.47782349e+09 4.43347048e+07 
18 187.49 1.36690901e+09 4.10072703e+07 
19 188.28 1.32836593e+09 3.98509778e+07 
20 189.08 1.28451040e+09 3.85353120e+07 
21 189.88 1.41093190e+09 4.23279569e+07 
22 190.67 1.52998746e+09 4.58996238e+07 
23 191.47 1.77979328e+09 5.33937984e+07 
24 192.27 2.12063282e+09 6.36189847e+07 
25 193.07 2.51460922e+09 7.54382766e+07 
26 193.86 3.06251507e+09 9.18754522e+07 
27 194.66 3.93013594e+09 1.17904078e+08 
28 195.46 5.11148949e+09 1.53344685e+08 
29 196.26 6.62088719e+09 1.98626616e+08 
30 197.05 8.51305459e+09 2.55391638e+08 
31 197.85 1.20763745e+10 3.62291235e+08 
32 198.65 1.10531621e+10 3.31594862e+08 
33 199.45 1.47129639e+10 4.41388916e+08 
34 200.25 2.14980858e+10 6.44942573e+08 
35 201.05 3.07002258e+10 9.21006775e+08 
36 201.85 3.35650819e+10 1.00695246e+09 
37 202.64 3.34263470e+10 1.00279041e+09 
38 203.44 2.11354526e+10 6.34063578e+08 
39 204.24 1.26375114e+10 3.79125341e+08 
40 205.04 8.20866424e+09 2.46259927e+08 
41 205.84 5.17739021e+09 1.55321706e+08 
42 206.64 3.18446251e+09 9.55338754e+07 
43 207.44 1.93268340e+09 5.79805019e+07 
44 208.24 1.22053890e+09 3.66161671e+07 
45 209.04 7.29686230e+08 2.18905869e+07 
46 209.84 4.39325229e+08 1.31797569e+07 
47 210.64 2.81947919e+08 8.45843757e+06 
48 211.44 1.73204176e+08 5.19612528e+06 
49 212.24 1.09108837e+08 3.27326512e+06 
50 213.05 6.52394628e+07 1.95718388e+06 
51 213.85 4.04113500e+07 1.21234050e+06 
52 214.65 2.53230579e+07 7.59691738e+05 
53 215.45 1.58493286e+07 4.75479859e+05 
54 216.25 1.00233798e+07 3.00701393e+05 
55 217.05 5.98127408e+06 1.79438222e+05 
56 217.85 3.70790413e+06 1.11237124e+05 
57 218.65 2.29151970e+06 6.87455910e+04 
58 219.46 1.39140492e+06 4.17421475e+04 
59 220.26 8.63241308e+05 2.58972392e+04 
60 221.06 5.54821226e+05 1.66446368e+04 
61 221.86 3.32598422e+05 9.97795267e+03 
62 222.66 2.05370668e+05 6.16112003e+03 
63 223.47 1.29338195e+05 3.88014586e+03 
64 224.27 7.71852312e+04 2.31555693e+03 
65 225.07 4.83506666e+04 1.45052000e+03 
66 225.87 2.97242944e+04 8.91728833e+02 
67 226.68 1.90245338e+04 5.70736013e+02 
68 227.48 1.12592810e+04 3.37778430e+02 
69 228.28 7.57862586e+03 2.27358776e+02 
70 229.09 5.16075383e+03 1.54822615e+02 
71 229.89 4.24166176e+03 1.27249853e+02 
72 230.69 4.24787044e+03 1.27436113e+02 
73 231.49 5.29991518e+03 1.58997455e+02 
74 232.30 7.95632888e+03 2.38689866e+02 
75 233.10 1.29072648e+04 3.87217943e+02 
76 233.91 2.36680598e+04 7.10041794e+02 
77 234.71 4.08367805e+04 1.22510341e+03 
78 235.51 7.54637533e+04 2.26391260e+03 
79 236.32 1.33975472e+05 4.01926417e+03 
80 237.12 2.41758865e+05 7.25276594e+03 
81 237.92 4.33817738e+05 1.30145321e+04 
82 238.73 7.97354733e+05 2.39206420e+04 
83 239.53 1.41374651e+06 4.24123953e+04 
84 240.34 2.54837819e+06 7.64513456e+04 
85 241.14 4.61366262e+06 1.38409879e+05 
86 241.94 7.81003648e+06 2.34301094e+05 
87 242.75 1.34387932e+07 4.03163797e+05 
88 243.55 2.29228249e+07 6.87684747e+05 
89 244.36 3.68310888e+07 1.10493267e+06 
90 245.16 5.89850393e+07 1.76955118e+06 
91 245.97 9.74487319e+07 2.92346196e+06 
92 246.77 1.67110197e+08 5.01330590e+06 
93 247.58 2.11447718e+08 6.34343153e+06 
94 248.38 2.89363634e+08 8.68090902e+06 
95 249.19 4.24445489e+08 1.27333647e+07 
96 249.99 5.26970552e+08 1.58091166e+07 
97 250.80 6.68474609e+08 2.00542383e+07 
98 251.60 8.09132543e+08 2.42739763e+07 
99 252.41 9.41095273e+08 2.82328582e+07 
100 253.21 1.04187332e+09 3.12561995e+07 
101 254.02 1.18507218e+09 3.55521654e+07 
102 254.83 1.25531926e+09 3.76595779e+07 
103 255.63 1.25052439e+09 3.75157317e+07 
104 256.44 1.11001529e+09 3.33004588e+07 
105 257.24 9.75752617e+08 2.92725785e+07 
106 258.05 8.53699310e+08 2.56109793e+07 
107 258.85 7.12535035e+08 2.13760510e+07 
108 259.66 5.51930111e+08 1.65579033e+07 
109 260.46 4.17727296e+08 1.25318189e+07 
110 261.27 2.94460520e+08 8.83381560e+06 
111 262.08 2.11932505e+08 6.35797515e+06 
112 262.88 1.31329695e+08 3.93989086e+06 
113 263.69 8.88566384e+07 2.66569915e+06 
114 264.50 5.72361925e+07 1.71708577e+06 
115 265.30 3.54609198e+07 1.06382759e+06 
116 266.11 2.12201345e+07 6.36604035e+05 
117 266.91 1.20509798e+07 3.61529393e+05 
118 267.72 6.74296604e+06 2.02288981e+05 
119 268.53 3.64291027e+06 1.09287308e+05 
120 269.33 1.99970411e+06 5.99911234e+04 
121 270.14 1.13317588e+06 3.39952764e+04 
122 270.95 6.12788358e+05 1.83836507e+04 
123 271.75 3.41112665e+05 1.02333800e+04 
124 272.56 1.81604528e+05 5.44813583e+03 
125 273.37 9.30220571e+04 2.79066171e+03 
126 274.17 4.89952778e+04 1.46985833e+03 
127 274.98 2.63802913e+04 7.91408740e+02 
128 275.79 1.45067612e+04 4.35202837e+02 
129 276.59 8.50311608e+03 2.55093482e+02 
130 277.40 4.58048720e+03 1.37414616e+02 
131 278.21 2.65133695e+03 7.95401085e+01 
132 279.01 1.52880252e+03 4.58640755e+01 
133 279.82 8.73315995e+02 2.61994799e+01 
134 280.63 5.16409564e+02 1.54922869e+01 
135 281.44 2.97818784e+02 8.93456353e+00 
136 282.24 1.86878063e+02 5.60634190e+00 
137 283.05 1.21737638e+02 3.65212913e+00 
138 283.86 7.94444974e+01 2.38333492e+00 
139 284.66 5.09942494e+01 1.52982748e+00 
140 285.47 3.42997515e+01 1.02899254e+00 
141 286.28 2.42609127e+01 7.27827380e-01 
142 287.09 1.69887342e+01 5.09662025e-01 
143 287.89 1.23750639e+01 3.71251918e-01 
144 288.70 9.24351278e+00 2.77305384e-01 
145 289.51 7.38734078e+00 2.21620223e-01 
146 290.32 5.74399693e+00 1.72319908e-01 
147 291.12 4.43354463e+00 1.33006339e-01 
148 291.93 3.67302223e+00 1.10190667e-01 
149 292.74 2.99057964e+00 8.97173893e-02 
150 293.55 2.41555347e+00 7.24666042e-02 
151 294.35 2.13968714e+00 6.41906141e-02 
152 295.16 1.81084705e+00 5.43254115e-02 
153 295.97 1.63699029e+00 4.91097086e-02 
154 296.78 1.35244608e+00 4.05733823e-02 
155 297.58 1.21101021e+00 3.63303062e-02 
156 298.39 1.12328771e+00 3.36986313e-02 
157 299.20 1.00770427e+00 3.02311281e-02 
158 300.01 9.16421717e-01 2.74926515e-02 
159 300.81 8.68583428e-01 2.60575028e-02 
160 301.62 8.04933481e-01 2.41480044e-02 
161 302.43 7.91435740e-01 2.37430722e-02 
162 303.24 7.19677373e-01 2.15903212e-02 
163 304.05 6.97680689e-01 2.09304207e-02 
164 304.85 6.69126545e-01 2.00737964e-02 
165 305.66 6.61169496e-01 1.98350849e-02 
166 306.47 6.31097767e-01 1.89329330e-02 
167 307.28 6.30027890e-01 1.89008367e-02 
168 308.08 6.12080998e-01 1.83624299e-02 
169 308.89 5.86444087e-01 1.75933226e-02 
170 309.70 5.87619755e-01 1.76285927e-02 
171 310.51 5.81881316e-01 1.74564395e-02 
172 311.32 5.81604702e-01 1.74481411e-02 
173 312.12 5.88488541e-01 1.76546562e-02 
174 312.93 5.76001486e-01 1.72800446e-02 
175 313.74 5.81260208e-01 1.74378062e-02 
176 314.55 5.84277651e-01 1.75283295e-02 
177 315.36 5.81902691e-01 1.74570807e-02 
178 316.16 5.94971583e-01 1.78491475e-02 
179 316.97 6.18603789e-01 1.85581137e-02 
180 317.78 6.10511446e-01 1.83153434e-02 
181 318.59 6.35550088e-01 1.90665026e-02 
182 319.39 6.38391108e-01 1.91517332e-02 
183 320.20 6.45592640e-01 1.93677792e-02 
184 321.01 6.92306382e-01 2.07691914e-02 
185 321.82 7.07248628e-01 2.12174588e-02 
186 322.63 7.18647629e-01 2.15594289e-02 
187 323.43 7.25124967e-01 2.17537490e-02 
188 324.24 7.55694073e-01 2.26708222e-02 
189 325.05 7.95811530e-01 2.38743459e-02 
190 325.86 8.29672968e-01 2.48901890e-02 
191 326.67 8.32897841e-01 2.49869352e-02 
192 327.48 8.80395747e-01 2.64118724e-02 
193 328.28 9.07822728e-01 2.72346818e-02 
194 329.09 9.46872821e-01 2.84061846e-02 
195 329.90 9.75991328e-01 2.92797399e-02 
196 330.71 1.08137738e+00 3.24413213e-02 
197 331.51 1.20909930e+00 3.62729791e-02 
198 332.32 1.41608214e+00 4.24824641e-02 
199 333.13 1.80884612e+00 5.42653835e-02 
200 333.94 2.47886813e+00 7.43660439e-02 
201 334.75 3.57713455e+00 1.07314036e-01 
202 335.56 5.07499056e+00 1.52249717e-01 
203 336.36 7.08310449e+00 2.12493135e-01 
204 337.17 1.01041268e+01 3.03123803e-01 
205 337.98 1.42842548e+01 4.28527645e-01 
206 338.79 1.90804941e+01 5.72414824e-01 
207 339.59 2.43015135e+01 7.29045404e-01 
208 340.40 2.88265221e+01 8.64795664e-01 
209 341.21 3.24812304e+01 9.74436911e-01 
210 342.02 3.67927693e+01 1.10378308e+00 
211 342.83 4.05199879e+01 1.21559964e+00 
212 343.64 4.12161115e+01 1.23648334e+00 
213 344.44 4.24207744e+01 1.27262323e+00 
214 345.25 4.68972291e+01 1.40691687e+00 
215 346.06 5.11107777e+01 1.53332333e+00 
216 346.87 5.37667323e+01 1.61300197e+00 
217 347.67 5.55936836e+01 1.66781051e+00 
218 348.48 5.72566319e+01 1.71769896e+00 
219 349.29 6.05169519e+01 1.81550856e+00 
220 350.10 6.62293275e+01 1.98687982e+00 
221 350.91 7.00948915e+01 2.10284675e+00 
222 351.71 7.01740235e+01 2.10522070e+00 
223 352.52 7.13801143e+01 2.14140343e+00 
224 353.33 7.76608439e+01 2.32982532e+00 
225 354.14 8.54247599e+01 2.56274280e+00 
226 354.94 8.87801150e+01 2.66340345e+00 
227 355.75 8.70871469e+01 2.61261441e+00 
228 356.56 8.18769913e+01 2.45630974e+00 
229 357.37 7.67967556e+01 2.30390267e+00 
230 358.18 7.57495189e+01 2.27248557e+00 
231 358.98 8.49133964e+01 2.54740189e+00 
232 359.79 9.77036957e+01 2.93111087e+00 
233 360.60 9.93355012e+01 2.98006504e+00 
234 361.41 9.78284824e+01 2.93485447e+00 
235 362.21 1.02975272e+02 3.08925817e+00 
236 363.02 1.08971701e+02 3.26915102e+00 
237 363.83 1.12545406e+02 3.37636219e+00 
238 364.64 1.17968985e+02 3.53906955e+00 
239 365.44 1.28369374e+02 3.85108123e+00 
240 366.25 1.37341117e+02 4.12023351e+00 
241 367.06 1.38521748e+02 4.15565243e+00 
242 367.87 1.36369126e+02 4.09107379e+00 
243 368.67 1.38310792e+02 4.14932375e+00 
244 369.48 1.44069181e+02 4.32207543e+00 
245 370.29 1.45417238e+02 4.36251715e+00 
246 371.10 1.43653240e+02 4.30959720e+00 
247 371.90 1.39791583e+02 4.19374749e+00 
248 372.71 1.31989493e+02 3.95968480e+00 
249 373.52 1.24764733e+02 3.74294200e+00 
250 374.33 1.24246801e+02 3.72740402e+00 
251 375.13 1.32842701e+02 3.98528103e+00 
252 375.94 1.44650061e+02 4.33950182e+00 
253 376.75 1.57390258e+02 4.72170773e+00 
254 377.55 1.71781924e+02 5.15345772e+00 
255 378.36 1.75694829e+02 5.27084487e+00 
256 379.17 1.67144129e+02 5.01432387e+00 
257 379.98 1.63327468e+02 4.89982403e+00 
258 380.78 1.62698071e+02 4.88094213e+00 
259 381.59 1.48497570e+02 4.45492709e+00 
260 382.40 1.26813295e+02 3.80439885e+00 
261 383.21 1.16892960e+02 3.50678881e+00 
262 384.01 1.26520136e+02 3.79560409e+00 
263 384.82 1.42820706e+02 4.28462119e+00 
264 385.63 1.50078665e+02 4.50235996e+00 
265 386.43 1.51544575e+02 4.54633725e+00 
266 387.24 1.52762320e+02 4.58286961e+00 
267 388.05 1.55491364e+02 4.66474093e+00 
268 388.85 1.65045286e+02 4.95135857e+00 
269 389.66 1.80398377e+02 5.41195130e+00 
270 390.47 1.92670973e+02 5.78012918e+00 
271 391.27 1.93378552e+02 5.80135655e+00 
272 392.08 1.72735071e+02 5.18205214e+00 
273 392.89 1.41212119e+02 4.23636358e+00 
274 393.69 1.34124946e+02 4.02374838e+00 
275 394.50 1.59084546e+02 4.77253637e+00 
276 395.31 1.77443368e+02 5.32330105e+00 
277 396.11 1.66446480e+02 4.99339441e+00 
278 396.92 1.58726603e+02 4.76179808e+00 
279 397.73 1.86452772e+02 5.59358316e+00 
280 398.53 2.29022722e+02 6.87068165e+00 
281 399.34 2.56861112e+02 7.70583335e+00 
282 400.15 2.70545097e+02 8.11635291e+00 
283 400.95 2.79895039e+02 8.39685118e+00 
284 401.76 2.87083207e+02 8.61249622e+00 
285 402.57 2.89306381e+02 8.67919143e+00 
286 403.37 2.87555787e+02 8.62667361e+00 
287 404.18 2.86068825e+02 8.58206475e+00 
288 404.98 2.84743126e+02 8.54229377e+00 
289 405.79 2.83501253e+02 8.50503758e+00 
290 406.60 2.84706092e+02 8.54118275e+00 
291 407.40 2.91919723e+02 8.75759168e+00 
292 408.21 3.02698758e+02 9.08096273e+00 
293 409.02 3.06818052e+02 9.20454156e+00 
294 409.82 3.04216357e+02 9.12649072e+00 
295 410.63 3.08192493e+02 9.24577479e+00 
296 411.44 3.21056852e+02 9.63170556e+00 
297 412.24 3.30226992e+02 9.90680976e+00 
298 413.05 3.31831681e+02 9.95495043e+00 
299 413.85 3.31854224e+02 9.95562673e+00 
300 414.66 3.32620021e+02 9.97860062e+00 
301 415.46 3.33964481e+02 1.00189344e+01 
302 416.27 3.33949195e+02 1.00184758e+01 
303 417.08 3.29908158e+02 9.89724475e+00 
304 417.88 3.24246911e+02 9.72740734e+00 
305 418.69 3.21346515e+02 9.64039544e+00 
306 419.49 3.21845689e+02 9.65537068e+00 
307 420.30 3.25410583e+02 9.76231748e+00 
308 421.11 3.28113280e+02 9.84339839e+00 
309 421.91 3.25224993e+02 9.75674978e+00 
310 422.72 3.19563751e+02 9.58691254e+00 
311 423.52 3.18240266e+02 9.54720799e+00 
312 424.33 3.20702134e+02 9.62106401e+00 
313 425.13 3.22027414e+02 9.66082242e+00 
314 425.94 3.21112120e+02 9.63336361e+00 
315 426.74 3.19586428e+02 9.58759284e+00 
316 427.55 3.17893402e+02 9.53680205e+00 
317 428.35 3.12630216e+02 9.37890648e+00 
318 429.16 2.99837097e+02 8.99511290e+00 
319 429.96 2.87337016e+02 8.62011049e+00 
320 430.77 2.94544315e+02 8.83632946e+00 
321 431.58 3.23436407e+02 9.70309220e+00 
322 432.38 3.54037724e+02 1.06211317e+01 
323 433.19 3.69465432e+02 1.10839629e+01 
324 433.99 3.77850557e+02 1.13355167e+01 
325 434.80 3.92542342e+02 1.17762703e+01 
326 435.60 4.12843797e+02 1.23853139e+01 
327 436.41 4.26766580e+02 1.28029974e+01 
328 437.21 4.27123792e+02 1.28137138e+01 
329 438.02 4.22227070e+02 1.26668121e+01 
330 438.82 4.24323088e+02 1.27296926e+01 
331 439.63 4.36249406e+02 1.30874822e+01 
332 440.43 4.54556528e+02 1.36366958e+01 
333 441.24 4.73324412e+02 1.41997324e+01 
334 442.04 4.90055956e+02 1.47016787e+01 
335 442.84 5.01876151e+02 1.50562845e+01 
336 443.65 5.08768285e+02 1.52630485e+01 
337 444.45 5.10991323e+02 1.53297397e+01 
338 445.26 5.10889958e+02 1.53266988e+01 
339 446.06 5.15242651e+02 1.54572795e+01 
340 446.87 5.26731742e+02 1.58019523e+01 
341 447.67 5.41541230e+02 1.62462369e+01 
342 448.48 5.53563315e+02 1.66068995e+01 
343 449.28 5.64439877e+02 1.69331963e+01 
344 450.09 5.75671999e+02 1.72701600e+01 
345 450.89 5.81823649e+02 1.74547095e+01 
346 451.69 5.77060050e+02 1.73118015e+01 
347 452.50 5.66727124e+02 1.70018137e+01 
348 453.30 5.61546922e+02 1.68464077e+01 
349 454.11 5.64258740e+02 1.69277622e+01 
350 454.91 5.73056455e+02 1.71916936e+01 
351 455.72 5.82636409e+02 1.74790923e+01 
352 456.52 5.90196897e+02 1.77059069e+01 
353 457.32 5.93439446e+02 1.78031834e+01 
354 458.13 5.92304673e+02 1.77691402e+01 
355 458.93 5.91277975e+02 1.77383392e+01 
356 459.74 5.94613875e+02 1.78384162e+01 
357 460.54 6.02067287e+02 1.80620186e+01 
358 461.34 6.10571140e+02 1.83171342e+01 
359 462.15 6.16246107e+02 1.84873832e+01 
360 462.95 6.16551020e+02 1.84965306e+01 
361 463.76 6.13043528e+02 1.83913059e+01 
362 464.56 6.09420868e+02 1.82826260e+01 
363 465.36 6.06502019e+02 1.81950606e+01 
364 466.17 6.05061027e+02 1.81518308e+01 
365 466.97 6.05996604e+02 1.81798981e+01 
366 467.77 6.08782291e+02 1.82634687e+01 
367 468.58 6.11960545e+02 1.83588163e+01 
368 469.38 6.12891064e+02 1.83867319e+01 
369 470.18 6.14094136e+02 1.84228241e+01 
370 470.99 6.20054654e+02 1.86016396e+01 
371 471.79 6.28629761e+02 1.88588928e+01 
372 472.59 6.36794778e+02 1.91038433e+01 
373 473.40 6.42887763e+02 1.92866329e+01 
374 474.20 6.46608885e+02 1.93982665e+01 
375 475.00 6.49027929e+02 1.94708379e+01 
376 475.81 6.51412659e+02 1.95423798e+01 
377 476.61 6.55141685e+02 1.96542505e+01 
378 477.41 6.61021518e+02 1.98306455e+01 
379 478.21 6.67123239e+02 2.00136972e+01 
380 479.02 6.71339522e+02 2.01401857e+01 
381 479.82 6.73563900e+02 2.02069170e+01 
382 480.62 6.76237459e+02 2.02871238e+01 
383 481.43 6.77354505e+02 2.03206351e+01 
384 482.23 6.75848798e+02 2.02754639e+01 
385 483.03 6.70713475e+02 2.01214043e+01 
386 483.84 6.59108183e+02 1.97732455e+01 
387 484.64 6.37526931e+02 1.91258079e+01 
388 485.44 6.12815104e+02 1.83844531e+01 
389 486.24 5.99029674e+02 1.79708902e+01 
390 487.05 6.01415967e+02 1.80424790e+01 
391 487.85 6.17666731e+02 1.85300019e+01 
392 488.65 6.38139041e+02 1.91441712e+01 
393 489.45 6.52107245e+02 1.95632173e+01 
394 490.26 6.56610890e+02 1.96983267e+01 
395 491.06 6.54818530e+02 1.96445559e+01 
396 491.86 6.50925828e+02 1.95277748e+01 
397 492.66 6.50538979e+02 1.95161694e+01 
398 493.46 6.56483100e+02 1.96944930e+01 
399 494.27 6.63719942e+02 1.99115982e+01 
400 495.07 6.67918807e+02 2.00375642e+01 
401 495.87 6.69758406e+02 2.00927522e+01 
402 496.67 6.66881589e+02 2.00064477e+01 
403 497.48 6.61785535e+02 1.98535660e+01 
404 498.28 6.56524133e+02 1.96957240e+01 
405 499.08 6.49679741e+02 1.94903922e+01 
406 499.88 6.42299542e+02 1.92689862e+01 
407 500.68 6.36452991e+02 1.90935897e+01 
408 501.48 6.33822186e+02 1.90146656e+01 
409 502.29 6.35570948e+02 1.90671284e+01 
410 503.09 6.39893809e+02 1.91968143e+01 
411 503.89 6.46094807e+02 1.93828442e+01 
412 504.69 6.52955377e+02 1.95886613e+01 
413 505.49 6.57874962e+02 1.97362489e+01 
414 506.29 6.58781242e+02 1.97634373e+01 
415 507.09 6.55955184e+02 1.96786555e+01 
416 507.90 6.52325999e+02 1.95697800e+01 
417 508.70 6.50413720e+02 1.95124116e+01 
418 509.50 6.50776691e+02 1.95233007e+01 
419 510.30 6.52133956e+02 1.95640187e+01 
420 511.10 6.51040505e+02 1.95312151e+01 
421 511.90 6.46958536e+02 1.94087561e+01 
422 512.70 6.40496125e+02 1.92148838e+01 
423 513.51 6.33222999e+02 1.89966900e+01 
424 514.31 6.26708732e+02 1.88012619e+01 
425 515.11 6.16703743e+02 1.85011123e+01 
426 515.91 6.01134925e+02 1.80340477e+01 
427 516.71 5.85970467e+02 1.75791140e+01 
428 517.51 5.77002066e+02 1.73100620e+01 
429 518.31 5.80072479e+02 1.74021744e+01 
430 519.11 5.93366631e+02 1.78009989e+01 
431 519.91 6.07488210e+02 1.82246463e+01 
432 520.71 6.18106098e+02 1.85431829e+01 
433 521.51 6.22760362e+02 1.86828108e+01 
434 522.32 6.25566086e+02 1.87669826e+01 
435 523.12 6.30020146e+02 1.89006044e+01 
436 523.92 6.34073450e+02 1.90222035e+01 
437 524.72 6.33477325e+02 1.90043197e+01 
438 525.52 6.25317434e+02 1.87595230e+01 
439 526.32 6.15504571e+02 1.84651371e+01 
440 527.12 6.13688946e+02 1.84106684e+01 
441 527.92 6.21092854e+02 1.86327856e+01 
442 528.72 6.34079529e+02 1.90223859e+01 
443 529.52 6.46078098e+02 1.93823429e+01 
444 530.32 6.51121623e+02 1.95336487e+01 
445 531.12 6.48283050e+02 1.94484915e+01 
446 531.92 6.42311699e+02 1.92693510e+01 
447 532.72 6.37288471e+02 1.91186541e+01 
448 533.52 6.36712031e+02 1.91013609e+01 
449 534.32 6.41365314e+02 1.92409594e+01 
450 535.12 6.46335253e+02 1.93900576e+01 
451 535.92 6.47528976e+02 1.94258693e+01 
452 536.72 6.46468125e+02 1.93940438e+01 
453 537.52 6.43722249e+02 1.93116675e+01 
454 538.32 6.39183092e+02 1.91754928e+01 
455 539.12 6.33827119e+02 1.90148136e+01 
456 539.92 6.29015795e+02 1.88704739e+01 
457 540.72 6.26904078e+02 1.88071223e+01 
458 541.52 6.28140115e+02 1.88442035e+01 
459 542.32 6.32539226e+02 1.89761768e+01 
460 543.12 6.37151695e+02 1.91145508e+01 
461 543.92 6.40291409e+02 1.92087423e+01 
462 544.72 6.42153000e+02 1.92645900e+01 
463 545.52 6.41824649e+02 1.92547395e+01 
464 546.31 6.38818135e+02 1.91645440e+01 
465 547.12 6.35279598e+02 1.90583880e+01 
466 547.91 6.33133290e+02 1.89939987e+01 
467 548.71 6.32412831e+02 1.89723849e+01 
468 549.51 6.32866811e+02 1.89860043e+01 
469 550.31 6.33136506e+02 1.89940952e+01 
470 551.11 6.32825413e+02 1.89847624e+01 
471 551.91 6.32359658e+02 1.89707897e+01 
472 552.71 6.32066500e+02 1.89619950e+01 
