% C0 (TOA Count Rate, /ms) for 4STAR NIR spectrometer (512 channels) derived from (SEE Original files for sources) and recorded on 2017-06-14 01:10:09.
% Langley at MLO and airborne Data outside 2.0x the STD of 501 nm Langley residuals were screened out. 
% Including high Altitude rate spectra, matched to splined stratospheric AOD measured at MLO.
% Averages of c0 from multiple days including: , infl-ig-ht, infl-ig-ht. See the list of files below
% 20160825_NIR_C0_refined_Langley_ORACLES_transit2.dat
% 20160824_NIR_C0_refined_langley_4STAR.dat
Pix Wavelength C0 C0err
511 949.79 4.74572921e+00 1.07607917e+00 
510 949.79 4.94080734e+00 1.01602092e+00 
509 951.68 5.31855448e+00 1.04290534e+00 
508 953.57 5.39041285e+00 9.93502437e-01 
507 955.46 5.86174040e+00 1.00802287e+00 
506 957.34 5.98144349e+00 9.55082780e-01 
505 959.22 6.48455931e+00 9.02531622e-01 
504 961.10 6.62229448e+00 7.98665994e-01 
503 962.98 7.10413357e+00 7.11611391e-01 
502 964.85 7.17428199e+00 5.65776465e-01 
501 966.72 7.75012886e+00 4.53753137e-01 
500 968.59 7.84575563e+00 3.21302696e-01 
499 970.45 8.25776983e+00 2.90898568e-01 
498 972.32 8.18249241e+00 3.34690695e-01 
497 974.18 8.50563002e+00 3.58340610e-01 
496 976.04 8.44886670e+00 3.15755889e-01 
495 977.89 8.82960582e+00 2.38496878e-01 
494 979.74 8.79519253e+00 1.31147229e-01 
493 981.59 9.12986586e+00 4.53449194e-02 
492 983.44 9.06275212e+00 3.82108554e-02 
491 985.29 9.32236145e+00 7.19146830e-02 
490 987.13 9.15550295e+00 1.17647479e-01 
489 988.97 9.40240709e+00 1.38775179e-01 
488 990.81 9.21275836e+00 1.37471140e-01 
487 992.65 9.41001815e+00 1.69164373e-01 
486 994.48 9.20633373e+00 1.52720498e-01 
485 996.31 9.35973483e+00 1.36812972e-01 
484 998.14 9.10604366e+00 1.46293619e-01 
483 999.97 9.25970434e+00 1.51252905e-01 
482 1001.79 8.98094741e+00 1.45416856e-01 
481 1003.62 9.03483437e+00 1.35345364e-01 
480 1005.44 8.83344536e+00 1.53609006e-01 
479 1007.25 9.06938086e+00 1.58608223e-01 
478 1009.07 8.86285890e+00 1.58516476e-01 
477 1010.88 9.03958781e+00 1.45211979e-01 
476 1012.69 8.76718290e+00 1.56046418e-01 
475 1014.50 8.88462503e+00 1.45444292e-01 
474 1016.31 8.65836545e+00 1.25231821e-01 
473 1018.11 8.81732008e+00 1.37534638e-01 
472 1019.91 8.56753192e+00 1.42508476e-01 
471 1021.71 8.73741294e+00 1.46106596e-01 
470 1023.51 8.50948538e+00 1.46312089e-01 
469 1025.30 8.67020328e+00 1.40866143e-01 
468 1027.09 8.55851016e+00 1.41542809e-01 
467 1028.88 8.71823275e+00 1.55974872e-01 
466 1030.67 8.56449202e+00 1.53382442e-01 
465 1032.46 8.74561993e+00 1.73356179e-01 
464 1034.24 8.57382228e+00 1.42801254e-01 
463 1036.02 8.77443724e+00 1.48202758e-01 
462 1037.80 8.64893984e+00 1.65816172e-01 
461 1039.58 8.86784555e+00 1.70561863e-01 
460 1041.35 8.70422363e+00 1.78422126e-01 
459 1043.12 8.85844576e+00 1.73735896e-01 
458 1044.89 8.78698015e+00 1.83822979e-01 
457 1046.66 9.01094221e+00 1.84097782e-01 
456 1048.43 8.93885889e+00 1.77463317e-01 
455 1050.19 9.16295686e+00 1.67793483e-01 
454 1051.95 9.04628401e+00 1.76371686e-01 
453 1053.71 9.30425104e+00 1.81587044e-01 
452 1055.47 9.13940222e+00 1.79584920e-01 
451 1057.23 9.25839353e+00 1.58287048e-01 
450 1058.98 9.10823050e+00 1.46123595e-01 
449 1060.73 9.27768435e+00 1.50463392e-01 
448 1062.48 9.07197381e+00 1.32003903e-01 
447 1064.23 9.20654076e+00 1.31843857e-01 
446 1065.97 8.91624731e+00 1.37978743e-01 
445 1067.71 8.96710614e+00 1.48685606e-01 
444 1069.46 8.76264056e+00 1.52027286e-01 
443 1071.19 8.87363640e+00 1.44854119e-01 
442 1072.93 8.73229551e+00 1.51272117e-01 
441 1074.67 8.79347994e+00 1.25458668e-01 
440 1076.40 8.57954032e+00 1.12786219e-01 
439 1078.13 8.60794197e+00 1.03597140e-01 
438 1079.86 8.34979505e+00 6.95312594e-02 
437 1081.58 8.41948222e+00 6.82698091e-02 
436 1083.31 8.29784236e+00 5.14537492e-02 
435 1085.03 8.47191587e+00 3.38366293e-02 
434 1086.75 8.39462223e+00 9.62782451e-03 
433 1088.47 8.54924983e+00 8.13104916e-03 
432 1090.19 8.43756206e+00 2.28416704e-02 
431 1091.90 8.53926405e+00 4.66371288e-02 
430 1093.61 8.39455784e+00 5.23253220e-02 
429 1095.33 8.59467770e+00 7.98130021e-02 
428 1097.03 8.58251587e+00 1.59127833e-01 
427 1098.74 8.79219345e+00 2.53830630e-01 
426 1100.45 8.79838983e+00 3.12455043e-01 
425 1102.15 9.05302235e+00 3.77889262e-01 
424 1103.85 9.05321344e+00 4.12272160e-01 
423 1105.55 9.28881100e+00 4.94738297e-01 
422 1107.25 9.16290143e+00 6.22468525e-01 
421 1108.94 9.22085338e+00 8.08730655e-01 
420 1110.64 8.88858628e+00 1.10732818e+00 
419 1112.33 8.65568295e+00 1.59396805e+00 
418 1114.02 8.04582942e+00 2.09867249e+00 
417 1115.70 7.84503680e+00 2.43918284e+00 
416 1117.39 7.48581998e+00 2.64577977e+00 
415 1119.07 7.36995890e+00 2.83473300e+00 
414 1120.76 7.17525204e+00 2.92305129e+00 
413 1122.44 7.13741416e+00 3.12094944e+00 
412 1124.12 7.08298986e+00 3.08795821e+00 
411 1125.79 7.27379469e+00 3.05778358e+00 
410 1127.47 7.53860434e+00 2.77367478e+00 
409 1129.14 7.94286665e+00 2.54681987e+00 
408 1130.81 7.46872964e+00 2.80706191e+00 
407 1132.48 7.33141099e+00 2.96205908e+00 
406 1134.15 7.20883638e+00 2.91542472e+00 
405 1135.81 7.69432238e+00 2.49064379e+00 
404 1137.48 8.36775756e+00 1.87759591e+00 
403 1139.14 8.66354045e+00 1.73527894e+00 
402 1140.80 8.29427030e+00 1.91466021e+00 
401 1142.46 8.08181218e+00 2.26197522e+00 
400 1144.12 7.74657156e+00 2.45195329e+00 
399 1145.77 7.75046993e+00 2.51609776e+00 
398 1147.43 7.81297258e+00 2.32830864e+00 
397 1149.08 8.12036753e+00 2.09685224e+00 
396 1150.73 8.11879098e+00 2.02125680e+00 
395 1152.38 8.45267310e+00 1.84724059e+00 
394 1154.02 8.51830603e+00 1.61873065e+00 
393 1155.67 8.85770476e+00 1.36579812e+00 
392 1157.31 8.82728078e+00 1.13837461e+00 
391 1158.95 9.01555431e+00 9.90313201e-01 
390 1160.59 9.06110723e+00 7.67916352e-01 
389 1162.23 9.26008744e+00 6.49079612e-01 
388 1163.87 9.19981784e+00 5.24648271e-01 
387 1165.50 9.28455110e+00 4.79948699e-01 
386 1167.13 9.21349130e+00 3.97315777e-01 
385 1168.76 9.36455382e+00 3.10813636e-01 
384 1170.39 9.23330752e+00 3.53138885e-01 
383 1172.02 9.23291992e+00 3.26296496e-01 
382 1173.65 9.02380787e+00 3.38123416e-01 
381 1175.27 9.01410204e+00 3.34233352e-01 
380 1176.90 8.91728929e+00 2.77657421e-01 
379 1178.52 8.81269741e+00 4.08576275e-01 
378 1180.14 8.60445241e+00 3.82894730e-01 
377 1181.75 8.57416455e+00 4.39038223e-01 
376 1183.37 8.41293466e+00 3.89740846e-01 
375 1184.99 8.43105763e+00 4.03016514e-01 
374 1186.60 8.34094607e+00 3.30915296e-01 
373 1188.21 8.33575127e+00 2.65047331e-01 
372 1189.82 8.26656503e+00 1.84043066e-01 
371 1191.43 8.46807627e+00 1.53606765e-01 
370 1193.04 8.37915919e+00 1.28869857e-01 
369 1194.64 8.35119853e+00 1.60874649e-01 
368 1196.24 8.16917311e+00 1.76976106e-01 
367 1197.85 8.21626377e+00 1.85717226e-01 
366 1199.45 8.08844006e+00 2.35274663e-01 
365 1201.05 8.17823865e+00 2.31383865e-01 
364 1202.64 8.08706602e+00 2.13181239e-01 
363 1204.24 8.14296345e+00 1.68526753e-01 
362 1205.83 8.09434625e+00 1.31491717e-01 
361 1207.43 8.11527510e+00 1.17434880e-01 
360 1209.02 8.06800921e+00 1.23546673e-01 
359 1210.61 8.19765452e+00 1.21396113e-01 
358 1212.19 8.18277858e+00 9.97919082e-02 
357 1213.78 8.35267881e+00 6.62852362e-02 
356 1215.37 8.30842048e+00 1.49979611e-02 
355 1216.95 8.38493666e+00 1.68609824e-02 
354 1218.53 8.35092519e+00 3.95320774e-02 
353 1220.11 8.41040719e+00 1.69583722e-02 
352 1221.69 8.36168257e+00 6.41217157e-03 
351 1223.27 8.40976845e+00 1.10763823e-02 
350 1224.84 8.39547221e+00 3.75455387e-02 
349 1226.42 8.44356656e+00 6.40251179e-02 
348 1227.99 8.43044874e+00 8.77784327e-02 
347 1229.56 8.57693708e+00 1.03023931e-01 
346 1231.13 8.50189446e+00 1.00414035e-01 
345 1232.70 8.58590023e+00 1.00522696e-01 
344 1234.27 8.55861690e+00 1.08753341e-01 
343 1235.84 8.56662859e+00 1.14736355e-01 
342 1237.40 8.50032902e+00 1.23196923e-01 
341 1238.96 8.51458752e+00 1.45641808e-01 
340 1240.52 8.35046206e+00 1.37198988e-01 
339 1242.08 8.48058834e+00 1.45180187e-01 
338 1243.64 8.44439419e+00 1.35231259e-01 
337 1245.20 8.47784934e+00 1.22148510e-01 
336 1246.75 8.42404686e+00 9.00980258e-02 
335 1248.31 8.49457290e+00 1.10014374e-01 
334 1249.86 8.41392485e+00 9.63461274e-02 
333 1251.41 8.45836983e+00 1.26880752e-01 
332 1252.96 8.35474989e+00 9.89847741e-02 
331 1254.51 8.39479512e+00 1.10727279e-01 
330 1256.06 8.31611559e+00 1.07389870e-01 
329 1257.61 8.30417625e+00 1.14321248e-01 
328 1259.15 8.23721899e+00 1.31274091e-01 
327 1260.69 8.22680474e+00 1.24754666e-01 
326 1262.23 8.15391072e+00 1.41224865e-01 
325 1263.77 8.15682615e+00 1.35271656e-01 
324 1265.31 8.05723080e+00 1.67814789e-01 
323 1266.85 8.09921528e+00 1.92718644e-01 
322 1268.39 8.10395667e+00 1.71104780e-01 
321 1269.92 8.17824145e+00 1.53226108e-01 
320 1271.46 8.24189149e+00 1.41542455e-01 
319 1272.99 8.24121506e+00 1.11515413e-01 
318 1274.52 8.22146387e+00 1.31374479e-01 
317 1276.05 8.26346159e+00 1.06697619e-01 
316 1277.58 8.09903211e+00 1.05135564e-01 
315 1279.10 7.94845999e+00 1.00745958e-01 
314 1280.63 7.90906504e+00 1.01742780e-01 
313 1282.15 7.90045148e+00 9.88727260e-02 
312 1283.68 7.99489118e+00 1.07744858e-01 
311 1285.20 8.13087871e+00 7.20525405e-02 
310 1286.72 8.10569691e+00 8.73737979e-02 
309 1288.24 8.12189615e+00 7.15331494e-02 
308 1289.75 8.02385384e+00 7.39403106e-02 
307 1291.27 8.04989289e+00 5.66784269e-02 
306 1292.78 8.08696335e+00 4.49728045e-02 
305 1294.30 8.06826562e+00 3.74980140e-03 
304 1295.81 7.98878120e+00 1.06536950e-02 
303 1297.32 7.95486977e+00 5.50316742e-02 
302 1298.83 7.89090597e+00 7.39999055e-02 
301 1300.34 7.83843411e+00 1.27568576e-01 
300 1301.85 7.76515329e+00 1.79228468e-01 
299 1303.35 7.69599683e+00 2.29926334e-01 
298 1304.86 7.59540769e+00 2.50705925e-01 
297 1306.36 7.56512258e+00 2.62378583e-01 
296 1307.86 7.49013297e+00 2.86561719e-01 
295 1309.36 7.38556203e+00 3.10117299e-01 
294 1310.86 7.26199290e+00 3.78337717e-01 
293 1312.36 7.19576900e+00 3.72896007e-01 
292 1313.86 7.12830496e+00 3.86901331e-01 
291 1315.36 7.11105750e+00 4.27535251e-01 
290 1316.85 7.01767420e+00 4.95798314e-01 
289 1318.34 6.97152506e+00 5.53743304e-01 
288 1319.84 6.88440825e+00 6.44902442e-01 
287 1321.33 6.91263946e+00 6.21512729e-01 
286 1322.82 6.86592848e+00 5.92005177e-01 
285 1324.30 6.82455810e+00 6.64901027e-01 
284 1325.79 6.66086321e+00 7.32419578e-01 
283 1327.28 6.47046080e+00 9.03950644e-01 
282 1328.76 6.18075044e+00 1.13584889e+00 
281 1330.25 6.05635391e+00 1.24071603e+00 
280 1331.73 5.98068451e+00 1.24957143e+00 
279 1333.21 5.98439122e+00 1.22746392e+00 
278 1334.69 5.99420695e+00 1.15451890e+00 
277 1336.17 5.98584371e+00 1.09748783e+00 
276 1337.65 5.90660377e+00 1.14397128e+00 
275 1339.12 5.86577086e+00 1.08778458e+00 
274 1340.60 5.71507749e+00 1.23785374e+00 
273 1342.07 5.55198967e+00 1.42513347e+00 
272 1343.55 5.28195341e+00 1.61711129e+00 
271 1345.02 4.72611641e+00 2.01839435e+00 
270 1346.49 4.38349789e+00 2.21606265e+00 
269 1347.96 3.99642354e+00 2.50392818e+00 
268 1349.43 3.61342377e+00 2.70384400e+00 
267 1350.89 3.28878324e+00 2.84408104e+00 
266 1352.36 2.86918645e+00 2.91661830e+00 
265 1353.82 2.61379039e+00 2.89908699e+00 
264 1355.29 2.37977503e+00 2.86836356e+00 
263 1356.75 2.22898492e+00 2.78268659e+00 
262 1358.21 2.01734387e+00 2.60242147e+00 
261 1359.67 1.84258626e+00 2.44932624e+00 
260 1361.13 1.74762640e+00 2.34920099e+00 
259 1362.59 1.71102587e+00 2.29164738e+00 
258 1364.04 1.77541654e+00 2.34417140e+00 
257 1365.50 1.76626083e+00 2.35061292e+00 
256 1366.95 1.76434873e+00 2.35453698e+00 
255 1368.41 1.71426859e+00 2.31514277e+00 
254 1369.86 1.72624512e+00 2.31116624e+00 
253 1371.31 1.80585587e+00 2.33318266e+00 
252 1372.76 1.82111437e+00 2.24742775e+00 
251 1374.21 1.88723329e+00 2.17600238e+00 
250 1375.65 1.83069579e+00 2.01645053e+00 
249 1377.10 1.65530945e+00 1.83066154e+00 
248 1378.55 1.44233522e+00 1.66151677e+00 
247 1379.99 1.21458846e+00 1.49849583e+00 
246 1381.43 1.11985831e+00 1.47174630e+00 
245 1382.87 1.15017088e+00 1.52888096e+00 
244 1384.32 1.25472806e+00 1.61386912e+00 
243 1385.75 1.40314526e+00 1.70018333e+00 
242 1387.19 1.60199744e+00 1.75741274e+00 
241 1388.63 1.68126108e+00 1.72679135e+00 
240 1390.07 1.71068098e+00 1.74141441e+00 
239 1391.50 1.68190771e+00 1.78071488e+00 
238 1392.94 1.48688220e+00 1.72694077e+00 
237 1394.37 1.52292618e+00 1.75850143e+00 
236 1395.80 1.66677235e+00 1.83410396e+00 
235 1397.23 1.62180075e+00 1.82504806e+00 
234 1398.66 1.72750207e+00 1.88685295e+00 
233 1400.09 1.82432398e+00 1.95188878e+00 
232 1401.52 1.73351070e+00 1.95207989e+00 
231 1402.94 1.87834131e+00 2.00253130e+00 
230 1404.37 1.95156974e+00 2.02526077e+00 
229 1405.79 1.89307497e+00 2.01646440e+00 
228 1407.22 1.95383458e+00 2.04268433e+00 
227 1408.64 2.06769494e+00 2.07136972e+00 
226 1410.06 2.22319946e+00 2.07295005e+00 
225 1411.48 2.23605518e+00 2.07549844e+00 
224 1412.90 2.37685194e+00 2.04152654e+00 
223 1414.32 2.47520843e+00 1.99062148e+00 
222 1415.73 2.43737651e+00 2.03608602e+00 
221 1417.15 2.48207364e+00 2.05893404e+00 
220 1418.56 2.59003278e+00 2.05006835e+00 
219 1419.98 2.55626680e+00 2.03816143e+00 
218 1421.39 2.67953293e+00 1.96285078e+00 
217 1422.80 2.82839450e+00 1.85216748e+00 
216 1424.21 2.87303337e+00 1.84064792e+00 
215 1425.62 2.85659641e+00 1.84575388e+00 
214 1427.03 2.96973558e+00 1.76678403e+00 
213 1428.44 2.89513103e+00 1.68568754e+00 
212 1429.84 2.81093923e+00 1.63911459e+00 
211 1431.25 2.85472144e+00 1.52897305e+00 
210 1432.65 2.83154077e+00 1.55275254e+00 
209 1434.06 2.82998939e+00 1.63010685e+00 
208 1435.46 2.90988703e+00 1.66622283e+00 
207 1436.86 2.95525911e+00 1.62503280e+00 
206 1438.26 2.96667078e+00 1.63558216e+00 
205 1439.66 2.99641116e+00 1.57231323e+00 
204 1441.05 3.12508946e+00 1.50391730e+00 
203 1442.45 3.02785958e+00 1.51770162e+00 
202 1443.85 3.03530921e+00 1.53174597e+00 
201 1445.24 3.14928774e+00 1.43545394e+00 
200 1446.64 3.17147250e+00 1.45737524e+00 
199 1448.03 3.09356606e+00 1.53705494e+00 
198 1449.42 3.18846754e+00 1.51117058e+00 
197 1450.81 3.22451055e+00 1.43493480e+00 
196 1452.20 3.27259925e+00 1.37383287e+00 
195 1453.59 3.53885956e+00 1.13132756e+00 
194 1454.97 3.75465723e+00 9.54865457e-01 
193 1456.36 3.79425556e+00 9.08394485e-01 
192 1457.75 3.82956748e+00 9.33151856e-01 
191 1459.13 3.79273918e+00 9.61238165e-01 
190 1460.51 3.72256337e+00 1.04622586e+00 
189 1461.90 3.57350598e+00 1.10054000e+00 
188 1463.28 3.50147492e+00 1.15991237e+00 
187 1464.66 3.38816857e+00 1.21017458e+00 
186 1466.04 3.39334302e+00 1.22472005e+00 
185 1467.41 3.21710952e+00 1.36015309e+00 
184 1468.79 3.12757876e+00 1.42517413e+00 
183 1470.17 3.10465476e+00 1.39964926e+00 
182 1471.54 3.19399166e+00 1.33019197e+00 
181 1472.92 3.32915806e+00 1.17966028e+00 
180 1474.29 3.45871529e+00 1.11419928e+00 
179 1475.66 3.49461594e+00 1.03907277e+00 
178 1477.03 3.42593388e+00 1.11350057e+00 
177 1478.40 3.36676869e+00 1.15149755e+00 
176 1479.77 3.45183312e+00 1.06477353e+00 
175 1481.14 3.47647522e+00 9.94303136e-01 
174 1482.51 3.59364850e+00 9.11740266e-01 
173 1483.87 3.55335846e+00 8.71447653e-01 
172 1485.24 3.51138017e+00 8.63330605e-01 
171 1486.60 3.49220549e+00 7.94524886e-01 
170 1487.96 3.59482611e+00 7.10052850e-01 
169 1489.32 3.64253009e+00 6.00755956e-01 
168 1490.68 3.83811119e+00 4.97979562e-01 
167 1492.04 3.84204861e+00 4.95068983e-01 
166 1493.40 3.88097582e+00 4.95500403e-01 
165 1494.76 3.86923780e+00 4.61956961e-01 
164 1496.12 3.92634010e+00 3.96965320e-01 
163 1497.47 3.92589156e+00 3.31285573e-01 
162 1498.83 4.02731367e+00 2.75785999e-01 
161 1500.18 3.89911075e+00 2.55616188e-01 
160 1501.53 3.80860713e+00 2.83932244e-01 
159 1502.89 3.69494803e+00 2.81602412e-01 
158 1504.24 3.71638958e+00 2.63512103e-01 
157 1505.59 3.74812614e+00 2.62775977e-01 
156 1506.93 3.89550136e+00 2.02419824e-01 
155 1508.28 3.93377125e+00 1.63295606e-01 
154 1509.63 3.97328276e+00 1.50914965e-01 
153 1510.97 3.94080925e+00 1.20450634e-01 
152 1512.32 4.00347855e+00 9.93280108e-02 
151 1513.66 3.92679857e+00 1.10232205e-01 
150 1515.00 3.97994219e+00 1.01403440e-01 
149 1516.34 3.95690962e+00 9.01389107e-02 
148 1517.69 3.96890686e+00 8.99305546e-02 
147 1519.02 3.91842748e+00 5.55040427e-02 
146 1520.36 3.95715320e+00 2.70982198e-02 
145 1521.70 3.91720882e+00 1.89136851e-02 
144 1523.04 3.97596400e+00 2.43152667e-02 
143 1524.37 3.94118443e+00 2.07135335e-02 
142 1525.71 3.99624039e+00 2.29154216e-02 
141 1527.04 3.91873024e+00 1.34697690e-02 
140 1528.37 3.95384844e+00 2.70526327e-03 
139 1529.70 3.87728480e+00 3.48566874e-03 
138 1531.03 3.92048496e+00 1.93316630e-02 
137 1532.36 3.87551996e+00 2.67423825e-02 
136 1533.69 3.91438049e+00 3.05852109e-02 
135 1535.02 3.84590254e+00 4.96198466e-02 
134 1536.34 3.85864433e+00 3.10358076e-02 
133 1537.67 3.79996051e+00 4.92084589e-02 
132 1538.99 3.83859537e+00 4.17523856e-02 
131 1540.31 3.78224439e+00 4.50982169e-02 
130 1541.64 3.82499736e+00 4.88988664e-02 
129 1542.96 3.77234355e+00 2.95204495e-02 
128 1544.28 3.80748031e+00 3.81490048e-02 
127 1545.60 3.72922649e+00 4.27684061e-02 
126 1546.91 3.76719679e+00 3.51378047e-02 
125 1548.23 3.68939408e+00 3.78214659e-02 
124 1549.55 3.71208236e+00 2.93480710e-02 
123 1550.86 3.65152249e+00 3.17347614e-02 
122 1552.18 3.67752291e+00 3.39079693e-02 
121 1553.49 3.61760221e+00 4.13755826e-02 
120 1554.80 3.65420696e+00 3.22268724e-02 
119 1556.11 3.59078863e+00 4.28056565e-02 
118 1557.42 3.63478854e+00 5.86869283e-02 
117 1558.73 3.56563119e+00 4.66807855e-02 
116 1560.04 3.58062123e+00 3.58106734e-02 
115 1561.34 3.50177255e+00 5.05470191e-02 
114 1562.65 3.54531602e+00 4.04612652e-02 
113 1563.95 3.48345334e+00 5.86406836e-02 
112 1565.26 3.53544533e+00 4.54931431e-02 
111 1566.56 3.43792720e+00 4.71047455e-02 
110 1567.86 3.47533158e+00 4.45677171e-02 
109 1569.16 3.38635643e+00 4.20135484e-02 
108 1570.46 3.39911963e+00 5.03924315e-02 
107 1571.76 3.29899531e+00 5.72923299e-02 
106 1573.05 3.26496254e+00 5.21543789e-02 
105 1574.35 3.15105690e+00 6.00432157e-02 
104 1575.64 3.17556702e+00 5.25390874e-02 
103 1576.94 3.12821805e+00 4.78381921e-02 
102 1578.23 3.19592781e+00 5.75446822e-02 
101 1579.52 3.15257765e+00 5.20139122e-02 
100 1580.81 3.20534770e+00 3.70745066e-02 
99 1582.10 3.13134036e+00 3.86839311e-02 
98 1583.39 3.19383032e+00 4.30109296e-02 
97 1584.68 3.11418150e+00 2.74736935e-02 
96 1585.97 3.12426597e+00 4.54028597e-02 
95 1587.25 3.01997304e+00 4.05698909e-02 
94 1588.54 3.02047475e+00 1.77774282e-02 
93 1589.82 2.96650107e+00 2.03332303e-02 
92 1591.10 3.07086579e+00 2.58995253e-02 
91 1592.38 3.03762032e+00 2.61185446e-02 
90 1593.66 3.09085110e+00 1.76625233e-02 
89 1594.94 3.01848996e+00 1.88310455e-02 
88 1596.22 3.03778068e+00 7.58753860e-04 
87 1597.50 2.94619997e+00 7.68847810e-03 
86 1598.77 2.98127949e+00 2.96887479e-02 
85 1600.05 2.88858442e+00 2.22214458e-02 
84 1601.32 2.92084669e+00 3.48197127e-02 
83 1602.59 2.84528152e+00 4.30859961e-02 
82 1603.86 2.90569011e+00 3.75172120e-02 
81 1605.13 2.79176822e+00 3.71240818e-02 
80 1606.40 2.84938129e+00 4.36016466e-02 
79 1607.67 2.74866029e+00 3.95442608e-02 
78 1608.94 2.79436521e+00 3.94177029e-02 
77 1610.20 2.72236486e+00 3.95075054e-02 
76 1611.47 2.77416125e+00 3.06857332e-02 
75 1612.73 2.69341404e+00 2.41372385e-02 
74 1614.00 2.74204640e+00 2.40013820e-02 
73 1615.26 2.66854270e+00 1.90981481e-02 
72 1616.52 2.68915542e+00 2.28266302e-02 
71 1617.78 2.60197759e+00 3.42660552e-02 
70 1619.03 2.61273560e+00 3.14327349e-03 
69 1620.29 2.56680039e+00 2.59270106e-02 
68 1621.55 2.61926318e+00 2.41427256e-02 
67 1622.80 2.55895107e+00 2.18210395e-02 
66 1624.06 2.63136760e+00 3.57885268e-02 
65 1625.31 2.52917678e+00 3.51813837e-02 
64 1626.56 2.58947453e+00 3.11298599e-02 
63 1627.81 2.48191947e+00 1.93080598e-02 
62 1629.06 2.50917853e+00 2.89368318e-02 
61 1630.31 2.40909427e+00 7.63979380e-03 
60 1631.56 2.44192672e+00 2.51663900e-02 
59 1632.80 2.34941366e+00 2.96160503e-02 
