% C0 (TOA Count Rate, /ms) for 4STAR NIR spectrometer (512 channels) derived from 20160117starsun.mat and recorded on 2016-01-18 06:37:45.
% Data outside 2.0x the STD of 501 nm Langley residuals were screened out.
Pix Wavelength C0 C0err
511 949.79 4.75620668e+00 1.42686200e-01 
510 949.79 4.96787157e+00 1.49036147e-01 
509 951.68 5.36302079e+00 1.60890624e-01 
508 953.57 5.41945173e+00 1.62583552e-01 
507 955.46 5.88363007e+00 1.76508902e-01 
506 957.34 6.00389996e+00 1.80116999e-01 
505 959.22 6.49865788e+00 1.94959737e-01 
504 961.10 6.60694365e+00 1.98208309e-01 
503 962.98 7.07529255e+00 2.12258777e-01 
502 964.85 7.10983235e+00 2.13294970e-01 
501 966.72 7.66855529e+00 2.30056659e-01 
500 968.59 7.73753610e+00 2.32126083e-01 
499 970.45 8.14125991e+00 2.44237797e-01 
498 972.32 8.07124742e+00 2.42137423e-01 
497 974.18 8.40810530e+00 2.52243159e-01 
496 976.04 8.32377193e+00 2.49713158e-01 
495 977.89 8.67277385e+00 2.60183216e-01 
494 979.74 8.61247661e+00 2.58374298e-01 
493 981.59 8.90659431e+00 2.67197829e-01 
492 983.44 8.82157209e+00 2.64647163e-01 
491 985.29 9.07787928e+00 2.72336378e-01 
490 987.13 8.87108828e+00 2.66132648e-01 
489 988.97 9.11122668e+00 2.73336800e-01 
488 990.81 8.91344521e+00 2.67403356e-01 
487 992.65 9.06770624e+00 2.72031187e-01 
486 994.48 8.88119316e+00 2.66435795e-01 
485 996.31 9.03241112e+00 2.70972334e-01 
484 998.14 8.80950636e+00 2.64285191e-01 
483 999.97 8.94750740e+00 2.68425222e-01 
482 1001.79 8.67228344e+00 2.60168503e-01 
481 1003.62 8.73383005e+00 2.62014901e-01 
480 1005.44 8.54274473e+00 2.56282342e-01 
479 1007.25 8.76996496e+00 2.63098949e-01 
478 1009.07 8.58727352e+00 2.57618205e-01 
477 1010.88 8.74490238e+00 2.62347071e-01 
476 1012.69 8.49954375e+00 2.54986312e-01 
475 1014.50 8.60524447e+00 2.58157334e-01 
474 1016.31 8.38344285e+00 2.51503285e-01 
473 1018.11 8.51000958e+00 2.55300287e-01 
472 1019.91 8.27698035e+00 2.48309410e-01 
471 1021.71 8.42552503e+00 2.52765751e-01 
470 1023.51 8.20983438e+00 2.46295031e-01 
469 1025.30 8.39366888e+00 2.51810066e-01 
468 1027.09 8.29274002e+00 2.48782201e-01 
467 1028.88 8.43269259e+00 2.52980778e-01 
466 1030.67 8.28659265e+00 2.48597780e-01 
465 1032.46 8.45679771e+00 2.53703931e-01 
464 1034.24 8.31322389e+00 2.49396717e-01 
463 1036.02 8.50914410e+00 2.55274323e-01 
462 1037.80 8.38650522e+00 2.51595157e-01 
461 1039.58 8.59286072e+00 2.57785822e-01 
460 1041.35 8.46780277e+00 2.54034083e-01 
459 1043.12 8.61536009e+00 2.58460803e-01 
458 1044.89 8.53258053e+00 2.55977416e-01 
457 1046.66 8.74447168e+00 2.62334150e-01 
456 1048.43 8.66345919e+00 2.59903776e-01 
455 1050.19 8.89170446e+00 2.66751134e-01 
454 1051.95 8.77768329e+00 2.63330499e-01 
453 1053.71 9.02275388e+00 2.70682617e-01 
452 1055.47 8.86988818e+00 2.66096645e-01 
451 1057.23 8.98596286e+00 2.69578886e-01 
450 1058.98 8.86417873e+00 2.65925362e-01 
449 1060.73 9.04716694e+00 2.71415008e-01 
448 1062.48 8.87768493e+00 2.66330548e-01 
447 1064.23 9.01988192e+00 2.70596458e-01 
446 1065.97 8.74169753e+00 2.62250926e-01 
445 1067.71 8.79280938e+00 2.63784282e-01 
444 1069.46 8.58614530e+00 2.57584359e-01 
443 1071.19 8.68738986e+00 2.60621696e-01 
442 1072.93 8.53012335e+00 2.55903700e-01 
441 1074.67 8.60434223e+00 2.58130267e-01 
440 1076.40 8.41413625e+00 2.52424088e-01 
439 1078.13 8.46217111e+00 2.53865133e-01 
438 1079.86 8.22461882e+00 2.46738565e-01 
437 1081.58 8.29081542e+00 2.48724463e-01 
436 1083.31 8.18932361e+00 2.45679708e-01 
435 1085.03 8.39476342e+00 2.51842903e-01 
434 1086.75 8.31296592e+00 2.49388978e-01 
433 1088.47 8.45198257e+00 2.53559477e-01 
432 1090.19 8.32972959e+00 2.49891888e-01 
431 1091.90 8.42346586e+00 2.52703976e-01 
430 1093.61 8.27990489e+00 2.48397147e-01 
429 1095.33 8.51442984e+00 2.55432895e-01 
428 1097.03 8.54018638e+00 2.56205591e-01 
427 1098.74 8.78160829e+00 2.63448249e-01 
426 1100.45 8.78318448e+00 2.63495534e-01 
425 1102.15 9.05592158e+00 2.71677647e-01 
424 1103.85 9.03186370e+00 2.70955911e-01 
423 1105.55 9.25318761e+00 2.77595628e-01 
422 1107.25 9.13508128e+00 2.74052439e-01 
421 1108.94 9.19792946e+00 2.75937884e-01 
420 1110.64 8.89829303e+00 2.66948791e-01 
419 1112.33 8.71278130e+00 2.61383439e-01 
418 1114.02 8.14699079e+00 2.44409724e-01 
417 1115.70 7.98753403e+00 2.39626021e-01 
416 1117.39 7.66316918e+00 2.29895075e-01 
415 1119.07 7.55463496e+00 2.26639049e-01 
414 1120.76 7.34933025e+00 2.20479908e-01 
413 1122.44 7.29721551e+00 2.18916465e-01 
412 1124.12 7.27320024e+00 2.18196007e-01 
411 1125.79 7.60734404e+00 2.28220321e-01 
410 1127.47 7.85013969e+00 2.35504191e-01 
409 1129.14 8.29157148e+00 2.48747144e-01 
408 1130.81 7.71328258e+00 2.31398478e-01 
407 1132.48 7.43971854e+00 2.23191556e-01 
406 1134.15 7.28083862e+00 2.18425158e-01 
405 1135.81 7.76629200e+00 2.32988760e-01 
404 1137.48 8.54773544e+00 2.56432063e-01 
403 1139.14 8.90917999e+00 2.67275400e-01 
402 1140.80 8.61019714e+00 2.58305914e-01 
401 1142.46 8.44540842e+00 2.53362253e-01 
400 1144.12 8.09027057e+00 2.42708117e-01 
399 1145.77 8.07399042e+00 2.42219713e-01 
398 1147.43 8.09081122e+00 2.42724337e-01 
397 1149.08 8.32959000e+00 2.49887700e-01 
396 1150.73 8.34274362e+00 2.50282308e-01 
395 1152.38 8.63912075e+00 2.59173622e-01 
394 1154.02 8.68177709e+00 2.60453313e-01 
393 1155.67 8.98631520e+00 2.69589456e-01 
392 1157.31 8.92077037e+00 2.67623111e-01 
391 1158.95 9.07054624e+00 2.72116387e-01 
390 1160.59 9.08284543e+00 2.72485363e-01 
389 1162.23 9.30590217e+00 2.79177065e-01 
388 1163.87 9.25636061e+00 2.77690818e-01 
387 1165.50 9.34995959e+00 2.80498788e-01 
386 1167.13 9.24683270e+00 2.77404981e-01 
385 1168.76 9.35459197e+00 2.80637759e-01 
384 1170.39 9.22695180e+00 2.76808554e-01 
383 1172.02 9.20768121e+00 2.76230436e-01 
382 1173.65 9.04649562e+00 2.71394869e-01 
381 1175.27 9.04085939e+00 2.71225782e-01 
380 1176.90 8.92743214e+00 2.67822964e-01 
379 1178.52 8.83591567e+00 2.65077470e-01 
378 1180.14 8.60079700e+00 2.58023910e-01 
377 1181.75 8.57063354e+00 2.57119006e-01 
376 1183.37 8.38733877e+00 2.51620163e-01 
375 1184.99 8.41027783e+00 2.52308335e-01 
374 1186.60 8.28523120e+00 2.48556936e-01 
373 1188.21 8.27179961e+00 2.48153988e-01 
372 1189.82 8.19578698e+00 2.45873609e-01 
371 1191.43 8.41937499e+00 2.52581250e-01 
370 1193.04 8.31049208e+00 2.49314762e-01 
369 1194.64 8.27471671e+00 2.48241501e-01 
368 1196.24 8.08091872e+00 2.42427561e-01 
367 1197.85 8.13159485e+00 2.43947846e-01 
366 1199.45 8.04175185e+00 2.41252556e-01 
365 1201.05 8.10573919e+00 2.43172176e-01 
364 1202.64 8.03283124e+00 2.40984937e-01 
363 1204.24 8.07270330e+00 2.42181099e-01 
362 1205.83 8.01347193e+00 2.40404158e-01 
361 1207.43 8.02774321e+00 2.40832296e-01 
360 1209.02 7.96643402e+00 2.38993020e-01 
359 1210.61 8.06394752e+00 2.41918426e-01 
358 1212.19 8.06658421e+00 2.41997526e-01 
357 1213.78 8.24323840e+00 2.47297152e-01 
356 1215.37 8.17525339e+00 2.45257602e-01 
355 1216.95 8.24830508e+00 2.47449152e-01 
354 1218.53 8.21080263e+00 2.46324079e-01 
353 1220.11 8.29705313e+00 2.48911594e-01 
352 1221.69 8.26159795e+00 2.47847939e-01 
351 1223.27 8.30528747e+00 2.49158624e-01 
350 1224.84 8.29972999e+00 2.48991900e-01 
349 1226.42 8.34927127e+00 2.50478138e-01 
348 1227.99 8.34755191e+00 2.50426557e-01 
347 1229.56 8.48312812e+00 2.54493844e-01 
346 1231.13 8.41698104e+00 2.52509431e-01 
345 1232.70 8.49955468e+00 2.54986640e-01 
344 1234.27 8.49748508e+00 2.54924553e-01 
343 1235.84 8.52508335e+00 2.55752500e-01 
342 1237.40 8.46767276e+00 2.54030183e-01 
341 1238.96 8.46711864e+00 2.54013559e-01 
340 1240.52 8.29260390e+00 2.48778117e-01 
339 1242.08 8.38514859e+00 2.51554458e-01 
338 1243.64 8.36655929e+00 2.50996779e-01 
337 1245.20 8.40225101e+00 2.52067530e-01 
336 1246.75 8.36739061e+00 2.51021718e-01 
335 1248.31 8.43186352e+00 2.52955906e-01 
334 1249.86 8.37459582e+00 2.51237875e-01 
333 1251.41 8.43556349e+00 2.53066905e-01 
332 1252.96 8.38135070e+00 2.51440521e-01 
331 1254.51 8.39561800e+00 2.51868540e-01 
330 1256.06 8.31022306e+00 2.49306692e-01 
329 1257.61 8.29075247e+00 2.48722574e-01 
328 1259.15 8.20473906e+00 2.46142172e-01 
327 1260.69 8.17441206e+00 2.45232362e-01 
326 1262.23 8.03534097e+00 2.41060229e-01 
325 1263.77 7.96855675e+00 2.39056703e-01 
324 1265.31 7.79327850e+00 2.33798355e-01 
323 1266.85 7.79447446e+00 2.33834234e-01 
322 1268.39 7.82362728e+00 2.34708818e-01 
321 1269.92 7.89503933e+00 2.36851180e-01 
320 1271.46 8.04527557e+00 2.41358267e-01 
319 1272.99 8.10806053e+00 2.43241816e-01 
318 1274.52 8.09377833e+00 2.42813350e-01 
317 1276.05 8.15434557e+00 2.44630367e-01 
316 1277.58 8.03603635e+00 2.41081090e-01 
315 1279.10 7.87570998e+00 2.36271299e-01 
314 1280.63 7.79136596e+00 2.33740979e-01 
313 1282.15 7.75739227e+00 2.32721768e-01 
312 1283.68 7.83161229e+00 2.34948369e-01 
311 1285.20 8.02094242e+00 2.40628273e-01 
310 1286.72 8.00569317e+00 2.40170795e-01 
309 1288.24 8.03054642e+00 2.40916393e-01 
308 1289.75 7.94076158e+00 2.38222847e-01 
307 1291.27 7.98484311e+00 2.39545293e-01 
306 1292.78 8.00778136e+00 2.40233441e-01 
305 1294.30 8.00650548e+00 2.40195165e-01 
304 1295.81 7.92303860e+00 2.37691158e-01 
303 1297.32 7.92217820e+00 2.37665346e-01 
302 1298.83 7.88792419e+00 2.36637726e-01 
301 1300.34 7.83649200e+00 2.35094760e-01 
300 1301.85 7.78171278e+00 2.33451383e-01 
299 1303.35 7.72250153e+00 2.31675046e-01 
298 1304.86 7.60371155e+00 2.28111346e-01 
297 1306.36 7.59130462e+00 2.27739138e-01 
296 1307.86 7.53014993e+00 2.25904498e-01 
295 1309.36 7.43959551e+00 2.23187865e-01 
294 1310.86 7.33207513e+00 2.19962254e-01 
293 1312.36 7.25582227e+00 2.17674668e-01 
292 1313.86 7.20121138e+00 2.16036341e-01 
291 1315.36 7.19974299e+00 2.15992290e-01 
290 1316.85 7.14892429e+00 2.14467729e-01 
289 1318.34 7.11177792e+00 2.13353338e-01 
288 1319.84 7.04175156e+00 2.11252547e-01 
287 1321.33 7.05753853e+00 2.11726156e-01 
286 1322.82 7.00944459e+00 2.10283338e-01 
285 1324.30 6.96097100e+00 2.08829130e-01 
284 1325.79 6.80560147e+00 2.04168044e-01 
283 1327.28 6.65396033e+00 1.99618810e-01 
282 1328.76 6.41306281e+00 1.92391884e-01 
281 1330.25 6.32221442e+00 1.89666433e-01 
280 1331.73 6.27016445e+00 1.88104933e-01 
279 1333.21 6.23375872e+00 1.87012762e-01 
278 1334.69 6.21123124e+00 1.86336937e-01 
277 1336.17 6.16080978e+00 1.84824293e-01 
276 1337.65 6.06698480e+00 1.82009544e-01 
275 1339.12 6.00681431e+00 1.80204429e-01 
274 1340.60 5.84764020e+00 1.75429206e-01 
273 1342.07 5.65046547e+00 1.69513964e-01 
272 1343.55 5.39070489e+00 1.61721147e-01 
271 1345.02 4.79999765e+00 1.43999929e-01 
270 1346.49 4.45202887e+00 1.33560866e-01 
269 1347.96 3.99392964e+00 1.19817889e-01 
268 1349.43 3.54638280e+00 1.06391484e-01 
267 1350.89 3.08149869e+00 9.24449606e-02 
266 1352.36 2.47829462e+00 7.43488386e-02 
265 1353.82 2.16549209e+00 6.49647626e-02 
264 1355.29 9.76995632e-01 2.93098690e-02 
263 1356.75 1.49328681e+00 4.47986044e-02 
262 1358.21 8.06721664e-01 2.42016499e-02 
261 1359.67 3.41148464e-01 1.02344539e-02 
260 1361.13 2.91718602e-01 8.75155807e-03 
259 1362.59 3.57407523e-01 1.07222257e-02 
258 1364.04 6.25902239e-01 1.87770672e-02 
257 1365.50 9.52501362e-01 2.85750409e-02 
256 1366.95 3.19090428e-01 9.57271283e-03 
255 1368.41 2.77361835e-01 8.32085506e-03 
254 1369.86 4.45856878e-01 1.33757063e-02 
253 1371.31 1.07260588e+00 3.21781764e-02 
252 1372.76 5.48595646e-01 1.64578694e-02 
251 1374.21 1.66006064e+00 4.98018191e-02 
250 1375.65 1.34970316e+00 4.04910949e-02 
249 1377.10 1.52412884e+00 4.57238652e-02 
248 1378.55 7.06947637e-01 2.12084291e-02 
247 1379.99 8.78285671e-01 2.63485701e-02 
246 1381.43 2.42116632e-01 7.26349897e-03 
245 1382.87 5.06091614e-01 1.51827484e-02 
244 1384.32 4.56526511e-01 1.36957953e-02 
243 1385.75 1.06224767e+00 3.18674300e-02 
242 1387.19 1.49874410e+00 4.49623229e-02 
241 1388.63 1.36110919e+00 4.08332756e-02 
240 1390.07 1.80544410e+00 5.41633229e-02 
239 1391.50 1.67894250e+00 5.03682750e-02 
238 1392.94 5.70020054e-01 1.71006016e-02 
237 1394.37 1.27795248e+00 3.83385745e-02 
236 1395.80 1.45355297e+00 4.36065890e-02 
235 1397.23 1.35472385e+00 4.06417154e-02 
234 1398.66 8.59266096e-01 2.57779829e-02 
233 1400.09 1.59755112e+00 4.79265337e-02 
232 1401.52 1.36604559e+00 4.09813678e-02 
231 1402.94 1.61778724e+00 4.85336173e-02 
230 1404.37 1.64648005e+00 4.93944016e-02 
229 1405.79 1.71340901e+00 5.14022704e-02 
228 1407.22 1.66310970e+00 4.98932909e-02 
227 1408.64 1.91703636e+00 5.75110907e-02 
226 1410.06 2.06238312e+00 6.18714937e-02 
225 1411.48 2.04278656e+00 6.12835969e-02 
224 1412.90 2.22815541e+00 6.68446624e-02 
223 1414.32 2.41575116e+00 7.24725349e-02 
222 1415.73 2.31280084e+00 6.93840252e-02 
221 1417.15 2.37939691e+00 7.13819072e-02 
220 1418.56 2.50453902e+00 7.51361706e-02 
219 1419.98 2.44716107e+00 7.34148320e-02 
218 1421.39 2.60633300e+00 7.81899901e-02 
217 1422.80 2.87454694e+00 8.62364082e-02 
216 1424.21 2.91992132e+00 8.75976396e-02 
215 1425.62 2.89442339e+00 8.68327017e-02 
214 1427.03 3.01504634e+00 9.04513901e-02 
213 1428.44 2.88032767e+00 8.64098302e-02 
212 1429.84 2.76450978e+00 8.29352934e-02 
211 1431.25 2.81081951e+00 8.43245852e-02 
210 1432.65 2.81426872e+00 8.44280616e-02 
209 1434.06 2.85006230e+00 8.55018691e-02 
208 1435.46 2.94482939e+00 8.83448816e-02 
207 1436.86 2.98943304e+00 8.96829913e-02 
206 1438.26 3.01632532e+00 9.04897595e-02 
205 1439.66 3.11616436e+00 9.34849309e-02 
204 1441.05 3.28784771e+00 9.86354314e-02 
203 1442.45 3.20349358e+00 9.61048074e-02 
202 1443.85 3.19889194e+00 9.59667581e-02 
201 1445.24 3.30611834e+00 9.91835501e-02 
200 1446.64 3.34331669e+00 1.00299501e-01 
199 1448.03 3.26244068e+00 9.78732205e-02 
198 1449.42 3.37629265e+00 1.01288779e-01 
197 1450.81 3.43341926e+00 1.03002578e-01 
196 1452.20 3.50438125e+00 1.05131437e-01 
195 1453.59 3.80482302e+00 1.14144691e-01 
194 1454.97 4.02849418e+00 1.20854826e-01 
193 1456.36 4.05833101e+00 1.21749930e-01 
192 1457.75 4.10245789e+00 1.23073737e-01 
191 1459.13 4.05306568e+00 1.21591970e-01 
190 1460.51 3.99829629e+00 1.19948889e-01 
189 1461.90 3.82491595e+00 1.14747478e-01 
188 1463.28 3.71440582e+00 1.11432175e-01 
187 1464.66 3.61008976e+00 1.08302693e-01 
186 1466.04 3.65695154e+00 1.09708546e-01 
185 1467.41 3.51180461e+00 1.05354138e-01 
184 1468.79 3.44030538e+00 1.03209161e-01 
183 1470.17 3.40218974e+00 1.02065692e-01 
182 1471.54 3.44233932e+00 1.03270179e-01 
181 1472.92 3.54052777e+00 1.06215833e-01 
180 1474.29 3.70717686e+00 1.11215306e-01 
179 1475.66 3.73230581e+00 1.11969174e-01 
178 1477.03 3.67415441e+00 1.10224632e-01 
177 1478.40 3.62108509e+00 1.08632553e-01 
176 1479.77 3.70482733e+00 1.11144820e-01 
175 1481.14 3.73515511e+00 1.12054653e-01 
174 1482.51 3.84034897e+00 1.15210469e-01 
173 1483.87 3.81892578e+00 1.14567774e-01 
172 1485.24 3.79808617e+00 1.13942585e-01 
171 1486.60 3.77412432e+00 1.13223730e-01 
170 1487.96 3.85094331e+00 1.15528299e-01 
169 1489.32 3.89507857e+00 1.16852357e-01 
168 1490.69 4.08404144e+00 1.22521243e-01 
167 1492.04 4.11018362e+00 1.23305508e-01 
166 1493.40 4.16180274e+00 1.24854082e-01 
165 1494.76 4.14229291e+00 1.24268787e-01 
164 1496.12 4.17988215e+00 1.25396465e-01 
163 1497.47 4.16729189e+00 1.25018757e-01 
162 1498.83 4.27116068e+00 1.28134820e-01 
161 1500.18 4.12670718e+00 1.23801215e-01 
160 1501.53 4.03662144e+00 1.21098643e-01 
159 1502.89 3.91866994e+00 1.17560098e-01 
158 1504.24 3.94837768e+00 1.18451330e-01 
157 1505.59 3.97402642e+00 1.19220793e-01 
156 1506.93 4.11406041e+00 1.23421812e-01 
155 1508.28 4.14701281e+00 1.24410384e-01 
154 1509.63 4.18382419e+00 1.25514726e-01 
153 1510.97 4.15413354e+00 1.24624006e-01 
152 1512.32 4.22828063e+00 1.26848419e-01 
151 1513.66 4.16415747e+00 1.24924724e-01 
150 1515.00 4.21977117e+00 1.26593135e-01 
149 1516.34 4.18598052e+00 1.25579416e-01 
148 1517.69 4.18838706e+00 1.25651612e-01 
147 1519.02 4.11280481e+00 1.23384144e-01 
146 1520.36 4.13379195e+00 1.24013759e-01 
145 1521.70 4.07859311e+00 1.22357793e-01 
144 1523.04 4.12580718e+00 1.23774215e-01 
143 1524.37 4.08333969e+00 1.22500191e-01 
142 1525.71 4.12560392e+00 1.23768118e-01 
141 1527.04 4.05005245e+00 1.21501573e-01 
140 1528.37 4.07775971e+00 1.22332791e-01 
139 1529.70 3.99804522e+00 1.19941356e-01 
138 1531.03 4.03680553e+00 1.21104166e-01 
137 1532.36 3.97968474e+00 1.19390542e-01 
136 1533.69 4.00806242e+00 1.20241873e-01 
135 1535.02 3.91500105e+00 1.17450031e-01 
134 1536.34 3.93336392e+00 1.18000918e-01 
133 1537.67 3.86456401e+00 1.15936920e-01 
132 1538.99 3.90563247e+00 1.17168974e-01 
131 1540.31 3.85726083e+00 1.15717825e-01 
130 1541.64 3.91737424e+00 1.17521227e-01 
129 1542.96 3.88562156e+00 1.16568647e-01 
128 1544.28 3.92568299e+00 1.17770490e-01 
127 1545.60 3.84120966e+00 1.15236290e-01 
126 1546.91 3.88214249e+00 1.16464275e-01 
125 1548.23 3.80173398e+00 1.14052020e-01 
124 1549.55 3.84688376e+00 1.15406513e-01 
123 1550.86 3.79071084e+00 1.13721325e-01 
122 1552.18 3.81160179e+00 1.14348054e-01 
121 1553.49 3.74268610e+00 1.12280583e-01 
120 1554.80 3.79658425e+00 1.13897527e-01 
119 1556.11 3.70920510e+00 1.11276153e-01 
118 1557.42 3.74672251e+00 1.12401675e-01 
117 1558.73 3.68339187e+00 1.10501756e-01 
116 1560.04 3.71251185e+00 1.11375356e-01 
115 1561.34 3.63624481e+00 1.09087344e-01 
114 1562.65 3.68650311e+00 1.10595093e-01 
113 1563.95 3.59942473e+00 1.07982742e-01 
112 1565.26 3.65584625e+00 1.09675388e-01 
111 1566.56 3.54831175e+00 1.06449353e-01 
110 1567.86 3.56722145e+00 1.07016643e-01 
109 1569.16 3.48327454e+00 1.04498236e-01 
108 1570.46 3.50437912e+00 1.05131374e-01 
107 1571.76 3.43662343e+00 1.03098703e-01 
106 1573.05 3.43266900e+00 1.02980070e-01 
105 1574.35 3.32598803e+00 9.97796408e-02 
104 1575.64 3.35363177e+00 1.00608953e-01 
103 1576.94 3.31819341e+00 9.95458024e-02 
102 1578.23 3.38162091e+00 1.01448627e-01 
101 1579.52 3.35970997e+00 1.00791299e-01 
100 1580.81 3.42414894e+00 1.02724468e-01 
99 1582.10 3.35391565e+00 1.00617469e-01 
98 1583.39 3.40445917e+00 1.02133775e-01 
97 1584.68 3.30513148e+00 9.91539445e-02 
96 1585.97 3.28098655e+00 9.84295965e-02 
95 1587.25 3.16833775e+00 9.50501325e-02 
94 1588.54 3.17799175e+00 9.53397525e-02 
93 1589.82 3.10132015e+00 9.30396045e-02 
92 1591.10 3.19912542e+00 9.59737625e-02 
91 1592.38 3.15061194e+00 9.45183583e-02 
90 1593.66 3.20441183e+00 9.61323548e-02 
89 1594.94 3.11712792e+00 9.35138375e-02 
88 1596.22 3.13516348e+00 9.40549043e-02 
87 1597.50 3.04052366e+00 9.12157098e-02 
86 1598.77 3.05804863e+00 9.17414589e-02 
85 1600.05 2.96265765e+00 8.88797295e-02 
84 1601.32 2.99983087e+00 8.99949261e-02 
83 1602.59 2.92532647e+00 8.77597940e-02 
82 1603.86 2.97700843e+00 8.93102528e-02 
81 1605.13 2.86528461e+00 8.59585384e-02 
80 1606.40 2.92695944e+00 8.78087833e-02 
79 1607.67 2.82790932e+00 8.48372796e-02 
78 1608.94 2.87036463e+00 8.61109388e-02 
77 1610.20 2.80279597e+00 8.40838790e-02 
76 1611.47 2.87124242e+00 8.61372727e-02 
75 1612.73 2.80353920e+00 8.41061761e-02 
74 1614.00 2.85686801e+00 8.57060403e-02 
73 1615.26 2.77114801e+00 8.31344403e-02 
72 1616.52 2.80057627e+00 8.40172880e-02 
71 1617.78 2.69807448e+00 8.09422344e-02 
70 1619.03 2.73336935e+00 8.20010806e-02 
69 1620.29 2.66149866e+00 7.98449598e-02 
68 1621.55 2.72428039e+00 8.17284116e-02 
67 1622.80 2.67253473e+00 8.01760419e-02 
66 1624.06 2.74946814e+00 8.24840443e-02 
65 1625.31 2.66148675e+00 7.98446025e-02 
64 1626.56 2.72214249e+00 8.16642748e-02 
63 1627.81 2.61704154e+00 7.85112463e-02 
62 1629.06 2.62060707e+00 7.86182120e-02 
61 1630.31 2.51505250e+00 7.54515750e-02 
60 1631.56 2.53082210e+00 7.59246630e-02 
59 1632.80 2.43275738e+00 7.29827214e-02 
58 1634.05 2.47380537e+00 7.42141611e-02 
57 1635.29 2.36743112e+00 7.10229335e-02 
56 1636.53 2.38764871e+00 7.16294613e-02 
55 1637.77 2.26752074e+00 6.80256221e-02 
54 1639.01 2.28590007e+00 6.85770021e-02 
53 1640.25 2.21645228e+00 6.64935684e-02 
52 1641.49 2.23218991e+00 6.69656972e-02 
51 1642.73 2.16570131e+00 6.49710392e-02 
