% C0 (TOA Count Rate, /ms) for 4STAR VIS spectrometer (1044 channels) derived from (SEE Original files for sources) and recorded on 2017-06-22 01:22:51.
% Langley at MLO and airborne Data outside 2.0x the STD of 501 nm Langley residuals were screened out. 
% Including high Altitude rate spectra, matched to splined stratospheric AOD measured at MLO.
% Averages of c0 from multiple days including: , high- a-lt, high- a-lt, high- a-lt. See the list of files below
% 20160908_VIS_C0_refined_high_alt_low_m.dat
% 20160904_VIS_C0_refined_high_alt_low_m_fromBonanza.dat
% 20160908_VIS_C0_refined_high_alt_low_m_fromBonanza.dat
Pix Wavelength C0 C0err
0 173.18 0.00000000e+00 0.00000000e+00 
1 173.98 -1.00000000e+00 0.00000000e+00 
2 174.77 -1.00000000e+00 0.00000000e+00 
3 175.56 -1.00000000e+00 0.00000000e+00 
4 176.36 -1.00000000e+00 0.00000000e+00 
5 177.15 -1.00000000e+00 0.00000000e+00 
6 177.94 -1.00000000e+00 0.00000000e+00 
7 178.74 -1.00000000e+00 0.00000000e+00 
8 179.53 -1.00000000e+00 0.00000000e+00 
9 180.33 -1.00000000e+00 0.00000000e+00 
10 181.12 -1.00000000e+00 0.00000000e+00 
11 181.92 -1.00000000e+00 0.00000000e+00 
12 182.71 -1.00000000e+00 0.00000000e+00 
13 183.51 -1.00000000e+00 0.00000000e+00 
14 184.30 -1.00000000e+00 0.00000000e+00 
15 185.10 -1.00000000e+00 0.00000000e+00 
16 185.89 -1.00000000e+00 0.00000000e+00 
17 186.69 -1.00000000e+00 0.00000000e+00 
18 187.49 -1.00000000e+00 0.00000000e+00 
19 188.28 -1.00000000e+00 0.00000000e+00 
20 189.08 -1.00000000e+00 0.00000000e+00 
21 189.88 -1.00000000e+00 0.00000000e+00 
22 190.67 -1.00000000e+00 0.00000000e+00 
23 191.47 -1.00000000e+00 0.00000000e+00 
24 192.27 -1.00000000e+00 0.00000000e+00 
25 193.07 -1.00000000e+00 0.00000000e+00 
26 193.86 -1.00000000e+00 0.00000000e+00 
27 194.66 -1.00000000e+00 0.00000000e+00 
28 195.46 -1.00000000e+00 0.00000000e+00 
29 196.26 -1.00000000e+00 0.00000000e+00 
30 197.05 -1.00000000e+00 0.00000000e+00 
31 197.85 -1.00000000e+00 0.00000000e+00 
32 198.65 -1.00000000e+00 0.00000000e+00 
33 199.45 -1.00000000e+00 0.00000000e+00 
34 200.25 -1.00000000e+00 0.00000000e+00 
35 201.05 -1.00000000e+00 0.00000000e+00 
36 201.85 -1.00000000e+00 0.00000000e+00 
37 202.65 -1.00000000e+00 0.00000000e+00 
38 203.44 -1.00000000e+00 0.00000000e+00 
39 204.24 -1.00000000e+00 0.00000000e+00 
40 205.04 -1.00000000e+00 0.00000000e+00 
41 205.84 -1.00000000e+00 0.00000000e+00 
42 206.64 -1.00000000e+00 0.00000000e+00 
43 207.44 -1.00000000e+00 0.00000000e+00 
44 208.24 -1.00000000e+00 0.00000000e+00 
45 209.04 -1.00000000e+00 0.00000000e+00 
46 209.84 5.86035533e+34 1.01504332e+35 
47 210.64 8.82547920e+33 1.52861784e+34 
48 211.44 1.35956249e+33 2.35483131e+33 
49 212.24 1.56365229e+35 1.34882829e+35 
50 213.04 2.06620228e+34 1.78114752e+34 
51 213.85 2.73272537e+33 2.35409179e+33 
52 214.65 3.65368037e+32 3.14483662e+32 
53 215.45 4.86332483e+31 4.18156463e+31 
54 216.25 6.38969598e+30 5.48745997e+30 
55 217.05 8.57592671e+29 7.35519090e+29 
56 217.85 1.15001725e+29 9.84986450e+28 
57 218.65 1.53989967e+28 1.31687224e+28 
58 219.46 2.06179513e+27 1.75917788e+27 
59 220.26 2.80008342e+26 2.38521697e+26 
60 221.06 3.63948319e+25 3.08924703e+25 
61 221.86 4.92423706e+24 4.16640215e+24 
62 222.66 6.57068598e+23 5.53920924e+23 
63 223.47 8.76387932e+22 7.35390798e+22 
64 224.27 1.20181666e+22 1.00450446e+22 
65 225.07 1.63266760e+21 1.35751311e+21 
66 225.87 2.17943601e+20 1.79862825e+20 
67 226.68 2.87209764e+19 2.34387002e+19 
68 227.48 4.25047511e+18 3.44548531e+18 
69 228.28 7.02675286e+17 5.64831078e+17 
70 229.08 1.60642662e+17 1.28041036e+17 
71 229.89 6.68713641e+16 5.30026934e+16 
72 230.69 6.38958555e+16 5.06396074e+16 
73 231.49 1.51421929e+17 1.20797768e+17 
74 232.30 7.44425270e+17 5.98451022e+17 
75 233.10 5.60364705e+18 4.56183281e+18 
76 233.90 4.95467024e+19 4.06741799e+19 
77 234.71 4.95049870e+20 4.09455361e+20 
78 235.51 5.09313125e+21 4.24685583e+21 
79 236.32 5.38449083e+22 4.51882252e+22 
80 237.12 5.69853874e+23 4.80726682e+23 
81 237.92 6.10978793e+24 5.17447080e+24 
82 238.73 6.72395014e+25 5.71596063e+25 
83 239.53 7.18501451e+26 6.12554040e+26 
84 240.34 7.78900818e+27 6.66048301e+27 
85 241.14 7.69343168e+28 6.59163412e+28 
86 241.94 6.81746218e+29 5.84915382e+29 
87 242.75 5.94888262e+30 5.11201879e+30 
88 243.55 4.63759871e+31 3.98948669e+31 
89 244.36 3.32061628e+32 2.85925531e+32 
90 245.16 2.21867139e+33 1.91210073e+33 
91 245.97 1.29846233e+34 1.11971841e+34 
92 246.77 6.47108978e+34 5.58224222e+34 
93 247.58 2.98652782e+35 2.57748166e+35 
94 248.38 1.37827983e+33 2.38725070e+33 
95 249.19 4.66952057e+33 8.08784687e+33 
96 249.99 1.24888846e+34 2.16313827e+34 
97 250.80 2.60365200e+34 4.50965754e+34 
98 251.60 5.20348950e+34 9.01270819e+34 
99 252.41 9.43563577e+34 1.63430005e+35 
100 253.21 1.40342139e+35 2.43079716e+35 
101 254.02 1.89852175e+35 3.28833612e+35 
102 254.82 -1.00000000e+00 0.00000000e+00 
103 255.63 2.13023666e+35 3.68967812e+35 
104 256.44 1.49891312e+35 2.59619367e+35 
105 257.24 8.76439297e+34 1.51803739e+35 
106 258.05 5.41676707e+34 9.38211577e+34 
107 258.85 2.84806560e+34 4.93299432e+34 
108 259.66 1.04374752e+34 1.80782373e+34 
109 260.46 3.07643863e+33 5.32854801e+33 
110 261.27 8.78631657e+32 1.52183467e+33 
111 262.08 1.74928637e+35 1.50985329e+35 
112 262.88 3.17748936e+34 2.74127821e+34 
113 263.69 5.25672670e+33 4.53208434e+33 
114 264.49 8.95936633e+32 7.71955714e+32 
115 265.30 1.32773109e+32 1.14305104e+32 
116 266.11 1.56954250e+31 1.35007092e+31 
117 266.91 1.57832442e+30 1.35554650e+30 
118 267.72 1.44871101e+29 1.24207622e+29 
119 268.53 1.14903302e+28 9.83152366e+27 
120 269.33 9.65255018e+26 8.24062418e+26 
121 270.14 9.65406377e+25 8.22134728e+25 
122 270.95 8.64862243e+24 7.33901282e+24 
123 271.75 7.19854524e+23 6.08262459e+23 
124 272.56 5.51853865e+22 4.63902371e+22 
125 273.37 3.77583598e+21 3.15352737e+21 
126 274.17 2.56866280e+20 2.12914900e+20 
127 274.98 1.96323453e+19 1.61008169e+19 
128 275.79 1.76874922e+18 1.43694664e+18 
129 276.59 1.68692533e+17 1.35381631e+17 
130 277.40 1.65069323e+16 1.30070635e+16 
131 278.21 1.63332178e+15 1.26789377e+15 
132 279.01 1.72702545e+14 1.31577588e+14 
133 279.82 1.90086889e+13 1.41533825e+13 
134 280.63 2.07070963e+12 1.50180665e+12 
135 281.43 2.39337808e+11 1.67570453e+11 
136 282.24 3.30954559e+10 2.24012262e+10 
137 283.05 5.48898641e+09 3.56976672e+09 
138 283.86 9.76422612e+08 6.09761023e+08 
139 284.66 1.75898319e+08 1.03691135e+08 
140 285.47 3.62335627e+07 2.06685372e+07 
141 286.28 8.92718058e+06 4.82599376e+06 
142 287.09 2.31883585e+06 1.18235868e+06 
143 287.89 6.14738563e+05 2.93177243e+05 
144 288.70 1.77769201e+05 7.83684416e+04 
145 289.51 5.86810670e+04 2.43470835e+04 
146 290.32 2.20416758e+04 8.57347211e+03 
147 291.12 8.53415134e+03 3.03206096e+03 
148 291.93 3.44819775e+03 1.16280481e+03 
149 292.74 1.52842090e+03 4.72838350e+02 
150 293.55 7.24470642e+02 2.06756112e+02 
151 294.35 3.75556417e+02 1.00777675e+02 
152 295.16 2.01745702e+02 4.91564201e+01 
153 295.97 1.13206039e+02 2.44608197e+01 
154 296.78 6.72016818e+01 1.28227419e+01 
155 297.58 4.12749990e+01 7.83942588e+00 
156 298.39 2.69567852e+01 4.60777952e+00 
157 299.20 1.85458208e+01 2.90642311e+00 
158 300.01 1.29891787e+01 1.69160524e+00 
159 300.81 9.73033461e+00 1.13427599e+00 
160 301.62 7.46053012e+00 9.25434716e-01 
161 302.43 5.73797528e+00 5.82791689e-01 
162 303.24 4.62713305e+00 4.24950336e-01 
163 304.04 3.87999169e+00 4.04390449e-01 
164 304.85 3.25210516e+00 2.74479873e-01 
165 305.66 2.79820871e+00 2.19659726e-01 
166 306.47 2.41878684e+00 1.62701883e-01 
167 307.28 2.13240075e+00 1.44222034e-01 
168 308.08 1.91878672e+00 1.14500714e-01 
169 308.89 1.73927057e+00 9.65472719e-02 
170 309.70 1.60275269e+00 7.77203767e-02 
171 310.51 1.47594134e+00 7.57700422e-02 
172 311.32 1.37627152e+00 5.87086122e-02 
173 312.12 1.29162053e+00 5.80636363e-02 
174 312.93 1.20832078e+00 4.64497344e-02 
175 313.74 1.15087394e+00 7.75636219e-02 
176 314.55 1.12732355e+00 5.98306664e-02 
177 315.36 1.05587820e+00 2.97475358e-02 
178 316.16 1.04771578e+00 3.17196556e-02 
179 316.97 1.04596134e+00 3.56285009e-02 
180 317.78 1.01078320e+00 2.34185284e-02 
181 318.59 1.00456391e+00 2.05565885e-02 
182 319.40 9.97788093e-01 2.57370019e-02 
183 320.20 9.97489373e-01 2.46132233e-02 
184 321.01 9.86287971e-01 2.55576556e-02 
185 321.82 9.97847099e-01 2.45185993e-02 
186 322.63 1.00558438e+00 2.36850937e-02 
187 323.43 1.00068970e+00 2.26297718e-02 
188 324.24 1.00705780e+00 2.36237341e-02 
189 325.05 1.03583046e+00 2.53837760e-02 
190 325.86 1.05305358e+00 2.05938471e-02 
191 326.67 1.06404503e+00 1.77580832e-02 
192 327.48 1.07872748e+00 2.10674800e-02 
193 328.28 1.10667908e+00 1.95801188e-02 
194 329.09 1.14892443e+00 2.44166521e-02 
195 329.90 1.18564383e+00 3.41930620e-02 
196 330.71 1.24301585e+00 3.29822767e-02 
197 331.52 1.33298342e+00 3.11132567e-02 
198 332.32 1.49859496e+00 4.05685256e-02 
199 333.13 1.77811015e+00 5.00864198e-02 
200 333.94 2.29414701e+00 6.42314177e-02 
201 334.75 3.10682702e+00 8.70375353e-02 
202 335.55 4.21239805e+00 1.35549221e-01 
203 336.36 5.75778659e+00 1.68372451e-01 
204 337.17 8.14419047e+00 2.47207743e-01 
205 337.98 1.14690272e+01 3.31891505e-01 
206 338.79 1.53466409e+01 4.23882960e-01 
207 339.60 1.96968498e+01 5.35753462e-01 
208 340.40 2.35931606e+01 6.35231504e-01 
209 341.21 2.68164667e+01 7.01523015e-01 
210 342.02 3.06412169e+01 7.64074689e-01 
211 342.83 3.40367076e+01 8.54637684e-01 
212 343.63 3.49052073e+01 8.95575117e-01 
213 344.44 3.60894369e+01 8.70235152e-01 
214 345.25 3.99880053e+01 9.29626601e-01 
215 346.06 4.37378400e+01 1.03296442e+00 
216 346.87 4.61719347e+01 1.09024160e+00 
217 347.67 4.78973834e+01 1.13774492e+00 
218 348.48 4.94850298e+01 1.13246822e+00 
219 349.29 5.23449618e+01 1.17029975e+00 
220 350.10 5.73857486e+01 1.27717692e+00 
221 350.90 6.08523293e+01 1.38981632e+00 
222 351.71 6.09411265e+01 1.40143888e+00 
223 352.52 6.19751969e+01 1.37770939e+00 
224 353.33 6.72795766e+01 1.40714545e+00 
225 354.14 7.40528641e+01 1.58500163e+00 
226 354.94 7.70492656e+01 1.71136987e+00 
227 355.75 7.56338018e+01 1.74275318e+00 
228 356.56 7.11175842e+01 1.64885084e+00 
229 357.37 6.67142029e+01 1.48535962e+00 
230 358.18 6.56219304e+01 1.35902306e+00 
231 358.98 7.34472300e+01 1.39826201e+00 
232 359.79 8.47462641e+01 1.69400308e+00 
233 360.60 8.62569199e+01 1.86609576e+00 
234 361.41 8.47248993e+01 1.71386431e+00 
235 362.21 8.92466304e+01 1.78419465e+00 
236 363.02 9.45128733e+01 1.89571917e+00 
237 363.83 9.76271719e+01 1.94962540e+00 
238 364.64 1.02322914e+02 1.95577367e+00 
239 365.44 1.11570765e+02 2.16332947e+00 
240 366.25 1.19755422e+02 2.41952525e+00 
241 367.06 1.20842229e+02 2.51638852e+00 
242 367.87 1.18888769e+02 2.43041598e+00 
243 368.67 1.20569763e+02 2.40750068e+00 
244 369.48 1.26099955e+02 2.59715405e+00 
245 370.29 1.27423230e+02 2.68043625e+00 
246 371.10 1.26185791e+02 2.71904710e+00 
247 371.90 1.23213511e+02 2.76437496e+00 
248 372.71 1.16491958e+02 2.61499523e+00 
249 373.52 1.10147540e+02 2.47258060e+00 
250 374.33 1.09477211e+02 2.26963274e+00 
251 375.13 1.17396912e+02 2.41710216e+00 
252 375.94 1.28172674e+02 2.72598547e+00 
253 376.75 1.39530797e+02 2.93066194e+00 
254 377.56 1.53241684e+02 3.45080355e+00 
255 378.36 1.57292877e+02 3.88823720e+00 
256 379.17 1.49038727e+02 3.53996461e+00 
257 379.98 1.45782196e+02 3.40742959e+00 
258 380.78 1.46233383e+02 3.74287826e+00 
259 381.59 1.33684922e+02 3.60177624e+00 
260 382.40 1.13570490e+02 2.92473546e+00 
261 383.20 1.04069796e+02 2.38860575e+00 
262 384.01 1.13090398e+02 2.57029796e+00 
263 384.82 1.28488638e+02 3.23851587e+00 
264 385.63 1.34602407e+02 3.46054207e+00 
265 386.43 1.35595357e+02 3.46191079e+00 
266 387.24 1.36534246e+02 3.53908420e+00 
267 388.05 1.38284063e+02 3.40691978e+00 
268 388.85 1.46388306e+02 3.51171286e+00 
269 389.66 1.60025045e+02 3.97400190e+00 
270 390.47 1.70860189e+02 4.38642367e+00 
271 391.27 1.72005244e+02 4.83778783e+00 
272 392.08 1.53622340e+02 4.64253165e+00 
273 392.89 1.23401563e+02 3.11805452e+00 
274 393.69 1.15458923e+02 2.16101728e+00 
275 394.50 1.38804306e+02 3.13726835e+00 
276 395.31 1.56317647e+02 4.35084448e+00 
277 396.11 1.44869064e+02 3.75455983e+00 
278 396.92 1.35089762e+02 2.41555828e+00 
279 397.73 1.59686498e+02 2.93023136e+00 
280 398.53 1.97895355e+02 4.30822262e+00 
281 399.34 2.21204046e+02 4.85448833e+00 
282 400.15 2.31989009e+02 4.90773000e+00 
283 400.95 2.39503026e+02 4.92648874e+00 
284 401.76 2.45691035e+02 5.11481220e+00 
285 402.57 2.47116755e+02 5.06788910e+00 
286 403.37 2.45118658e+02 4.89020472e+00 
287 404.18 2.43562759e+02 4.77605439e+00 
288 404.99 2.42084844e+02 4.66034774e+00 
289 405.79 2.40498138e+02 4.46712473e+00 
290 406.60 2.40764008e+02 4.19084087e+00 
291 407.40 2.46436182e+02 4.13980808e+00 
292 408.21 2.55883636e+02 4.41168632e+00 
293 409.02 2.59665711e+02 4.74544481e+00 
294 409.82 2.55635081e+02 4.22398071e+00 
295 410.63 2.57949204e+02 3.91976618e+00 
296 411.43 2.69490784e+02 4.42965979e+00 
297 412.24 2.76776082e+02 4.62639691e+00 
298 413.05 2.77039876e+02 4.44689536e+00 
299 413.85 2.76645131e+02 4.39325239e+00 
300 414.66 2.76819326e+02 4.34563015e+00 
301 415.46 2.77594910e+02 4.30906569e+00 
302 416.27 2.77841471e+02 4.47847444e+00 
303 417.08 2.73975179e+02 4.33262685e+00 
304 417.88 2.68692790e+02 4.04124358e+00 
305 418.69 2.66540161e+02 4.07079797e+00 
306 419.49 2.66931274e+02 3.92860877e+00 
307 420.30 2.70243123e+02 3.86157813e+00 
308 421.11 2.73818766e+02 4.17764732e+00 
309 421.91 2.71736033e+02 4.05462019e+00 
310 422.72 2.66863180e+02 3.61027173e+00 
311 423.52 2.67031423e+02 3.60101602e+00 
312 424.33 2.70650319e+02 3.78570157e+00 
313 425.13 2.72833689e+02 3.76555503e+00 
314 425.94 2.73450328e+02 3.74796406e+00 
315 426.74 2.73491760e+02 3.65423715e+00 
316 427.55 2.73476450e+02 3.55038473e+00 
317 428.36 2.71215851e+02 3.82497318e+00 
318 429.16 2.61313761e+02 3.73010663e+00 
319 429.96 2.49582570e+02 2.76343799e+00 
320 430.77 2.56188660e+02 2.15503934e+00 
321 431.58 2.85573680e+02 3.22851033e+00 
322 432.38 3.15824748e+02 4.31017537e+00 
323 433.19 3.30054647e+02 4.36426550e+00 
324 433.99 3.37508850e+02 3.97777888e+00 
325 434.80 3.51875753e+02 4.02869281e+00 
326 435.60 3.72617137e+02 4.73190251e+00 
327 436.41 3.87248749e+02 5.42079977e+00 
328 437.21 3.88284078e+02 5.48658454e+00 
329 438.02 3.83193034e+02 4.93641380e+00 
330 438.82 3.85632507e+02 4.81786617e+00 
331 439.63 3.98247040e+02 5.34550750e+00 
332 440.43 4.15704468e+02 5.56652972e+00 
333 441.24 4.33930257e+02 5.91623279e+00 
334 442.04 4.50632884e+02 6.39774612e+00 
335 442.85 4.61937612e+02 6.49081162e+00 
336 443.65 4.68562215e+02 6.47794280e+00 
337 444.45 4.71482696e+02 6.75917918e+00 
338 445.26 4.70914541e+02 6.55166704e+00 
339 446.06 4.74025828e+02 6.13369004e+00 
340 446.87 4.85462026e+02 6.50370212e+00 
341 447.67 5.00060913e+02 7.08585724e+00 
342 448.48 5.10619619e+02 7.05603626e+00 
343 449.28 5.20330302e+02 6.89273515e+00 
344 450.09 5.31767497e+02 7.19996735e+00 
345 450.89 5.38534892e+02 7.65674466e+00 
346 451.70 5.33629883e+02 7.52233307e+00 
347 452.50 5.22234436e+02 6.76408033e+00 
348 453.30 5.16546804e+02 6.30761530e+00 
349 454.11 5.19669251e+02 6.52653725e+00 
350 454.91 5.27669963e+02 6.53133346e+00 
351 455.72 5.36266703e+02 6.56981851e+00 
352 456.52 5.43634013e+02 6.82655333e+00 
353 457.32 5.46471212e+02 6.92834325e+00 
354 458.13 5.44441488e+02 6.60141852e+00 
355 458.93 5.42555278e+02 6.26341024e+00 
356 459.74 5.45324178e+02 6.07764909e+00 
357 460.54 5.52321940e+02 6.05297880e+00 
358 461.34 5.60361898e+02 6.25434654e+00 
359 462.15 5.65497965e+02 6.34242159e+00 
360 462.95 5.65338542e+02 6.40362672e+00 
361 463.76 5.61040161e+02 6.19728403e+00 
362 464.56 5.56599365e+02 5.89657386e+00 
363 465.36 5.53893310e+02 5.93769929e+00 
364 466.17 5.52493001e+02 5.85758976e+00 
365 466.97 5.52663941e+02 5.49265328e+00 
366 467.77 5.55214518e+02 5.44999725e+00 
367 468.58 5.58407227e+02 5.62780069e+00 
368 469.38 5.58662476e+02 5.40202954e+00 
369 470.18 5.58510050e+02 4.86318599e+00 
370 470.99 5.63829997e+02 4.70579591e+00 
371 471.79 5.73045227e+02 5.24311857e+00 
372 472.59 5.80777710e+02 5.33872299e+00 
373 473.40 5.85618123e+02 5.13901384e+00 
374 474.20 5.89230082e+02 5.32636368e+00 
375 475.00 5.91858704e+02 5.55018915e+00 
376 475.81 5.93276347e+02 5.25912605e+00 
377 476.61 5.96570842e+02 5.03233765e+00 
378 477.41 6.03007751e+02 5.32381112e+00 
379 478.21 6.09171386e+02 5.41166876e+00 
380 479.02 6.13063884e+02 5.26501064e+00 
381 479.82 6.15482687e+02 5.19150706e+00 
382 480.62 6.18455566e+02 5.23125930e+00 
383 481.43 6.20224630e+02 5.37650593e+00 
384 482.23 6.19607971e+02 5.60311345e+00 
385 483.03 6.15537760e+02 5.73495868e+00 
386 483.84 6.06306763e+02 6.03340676e+00 
387 484.64 5.87601807e+02 6.26832817e+00 
388 485.44 5.63224853e+02 5.34721920e+00 
389 486.24 5.48270549e+02 4.13041625e+00 
390 487.04 5.51758850e+02 4.28127766e+00 
391 487.85 5.69119344e+02 5.05597521e+00 
392 488.65 5.88437052e+02 5.21808770e+00 
393 489.45 6.01884643e+02 5.53582994e+00 
394 490.26 6.07255005e+02 6.06019976e+00 
395 491.06 6.05305888e+02 5.95810028e+00 
396 491.86 6.00976075e+02 5.52245242e+00 
397 492.66 6.01352010e+02 5.55946170e+00 
398 493.46 6.08275024e+02 5.93356216e+00 
399 494.27 6.16087870e+02 6.26918852e+00 
400 495.07 6.20378703e+02 6.46138429e+00 
401 495.87 6.22149475e+02 6.43877732e+00 
402 496.67 6.20073222e+02 6.53550989e+00 
403 497.48 6.15689819e+02 6.46619171e+00 
404 498.28 6.10962280e+02 6.22312511e+00 
405 499.08 6.05798787e+02 6.28122971e+00 
406 499.88 6.00124512e+02 6.38445353e+00 
407 500.68 5.94662577e+02 6.07263375e+00 
408 501.48 5.91966878e+02 5.80837090e+00 
409 502.29 5.94632528e+02 6.07364178e+00 
410 503.09 5.99455810e+02 6.32392241e+00 
411 503.89 6.04958557e+02 6.27695684e+00 
412 504.69 6.11615804e+02 6.32675950e+00 
413 505.49 6.17530558e+02 6.80963157e+00 
414 506.29 6.19157084e+02 7.07113342e+00 
415 507.09 6.15886312e+02 6.71868593e+00 
416 507.90 6.12161336e+02 6.34453025e+00 
417 508.70 6.11179341e+02 6.43408606e+00 
418 509.50 6.12125203e+02 6.54333476e+00 
419 510.30 6.13394206e+02 6.45104251e+00 
420 511.10 6.12822469e+02 6.65062073e+00 
421 511.90 6.09353882e+02 6.90489036e+00 
422 512.71 6.02757385e+02 6.78570872e+00 
423 513.51 5.95267131e+02 6.56490490e+00 
424 514.31 5.89670675e+02 6.70977410e+00 
425 515.11 5.81482625e+02 7.09851948e+00 
426 515.91 5.66327942e+02 6.93210722e+00 
427 516.71 5.49577006e+02 5.87476450e+00 
428 517.51 5.39938212e+02 5.23569625e+00 
429 518.31 5.43634583e+02 5.35356971e+00 
430 519.11 5.57244670e+02 5.75915620e+00 
431 519.91 5.71174764e+02 6.08718267e+00 
432 520.71 5.81469971e+02 6.30082805e+00 
433 521.52 5.85630819e+02 6.31489993e+00 
434 522.32 5.87454427e+02 6.14561550e+00 
435 523.12 5.91241333e+02 6.07018193e+00 
436 523.92 5.95827453e+02 6.49192016e+00 
437 524.72 5.96262960e+02 7.04318153e+00 
438 525.52 5.87628113e+02 6.88501364e+00 
439 526.32 5.75766846e+02 5.90195451e+00 
440 527.12 5.72554891e+02 5.30615474e+00 
441 527.92 5.80648743e+02 5.70174253e+00 
442 528.72 5.94422546e+02 6.33224117e+00 
443 529.52 6.05578593e+02 6.37686068e+00 
444 530.32 6.10297424e+02 6.37228875e+00 
445 531.12 6.08076783e+02 6.49816650e+00 
446 531.92 6.01627401e+02 6.15103014e+00 
447 532.72 5.95206950e+02 5.58993464e+00 
448 533.52 5.93909729e+02 5.37120734e+00 
449 534.32 5.98533447e+02 5.57924584e+00 
450 535.12 6.03639058e+02 5.96546732e+00 
451 535.92 6.04503642e+02 6.09128061e+00 
452 536.72 6.02303568e+02 5.76102805e+00 
453 537.52 5.99156169e+02 5.76584433e+00 
454 538.32 5.95120076e+02 5.93844810e+00 
455 539.12 5.89588053e+02 5.79213591e+00 
456 539.92 5.84032858e+02 5.31772995e+00 
457 540.72 5.81870484e+02 5.01699361e+00 
458 541.52 5.83710205e+02 5.16739169e+00 
459 542.32 5.88081583e+02 5.20460753e+00 
460 543.12 5.92098470e+02 5.07264501e+00 
461 543.92 5.95010091e+02 5.04560137e+00 
