% C0 (TOA Count Rate, /ms) for 4STAR VIS spectrometer (1044 channels) derived from (SEE Original files for sources) and recorded on 2017-06-27 01:25:24.
% Langley at MLO and airborne Data outside 2.0x the STD of 501 nm Langley residuals were screened out. 
% Including high Altitude rate spectra, matched to splined stratospheric AOD measured at MLO.
% Averages of c0 from multiple days including: , MLO -av-g-, infl-ig-ht, high- a-lt, infl-ig-ht, high- a-lt. See the list of files below
% 20161115_VIS_C0_refined_Langley_Nov2016part1.5incl1115_good_mean.dat
% 20160924_VIS_C0_refined_Langley_airborne_ORACLES_v1.dat
% 20160927_VIS_C0_refined_high_alt_low_m.dat
% 20160824_VIS_C0_refined_langley_4STAR.dat
% 20160927_VIS_C0_refined_high_alt_low_m_fromBonanza_loglogquad.dat
Pix Wavelength C0 C0err
0 173.18 -6.00000000e-01 5.47722558e-01 
1 173.98 4.79008578e+04 1.07111810e+05 
2 174.77 1.30704375e+05 2.92266104e+05 
3 175.56 1.95696989e+05 4.37594006e+05 
4 176.36 1.10916847e+07 2.48017633e+07 
5 177.15 1.46621967e+07 3.27856707e+07 
6 177.94 1.74993147e+07 3.91296595e+07 
7 178.74 2.08674498e+07 4.66610385e+07 
8 179.53 2.57457620e+07 5.75692762e+07 
9 180.33 3.12285976e+07 6.98292693e+07 
10 181.12 3.69712022e+07 8.26701236e+07 
11 181.92 4.48996416e+07 1.00398653e+08 
12 182.71 5.69313624e+07 1.27302399e+08 
13 183.51 6.48168384e+07 1.44934859e+08 
14 184.30 8.10840504e+07 1.81309451e+08 
15 185.10 9.54112506e+07 2.13346044e+08 
16 185.89 1.19642763e+08 2.67529354e+08 
17 186.69 1.38602081e+08 3.09923676e+08 
18 187.49 1.82069567e+08 4.07119931e+08 
19 188.28 2.46452197e+08 5.51083868e+08 
20 189.08 3.45964429e+08 7.73599984e+08 
21 189.88 5.15665761e+08 1.15306370e+09 
22 190.67 6.65891975e+08 1.48897972e+09 
23 191.47 9.50664503e+08 2.12575046e+09 
24 192.27 1.36887560e+09 3.06089889e+09 
25 193.07 1.97052178e+09 4.40622064e+09 
26 193.86 2.65000414e+09 5.92558940e+09 
27 194.66 3.78136058e+09 8.45537930e+09 
28 195.46 4.93468204e+09 1.10342845e+10 
29 196.26 6.89318038e+09 1.54136199e+10 
30 197.05 9.88774070e+09 2.21096603e+10 
31 197.85 1.45767655e+10 3.25946386e+10 
32 198.65 2.09456180e+10 4.68358257e+10 
33 199.45 3.20112664e+10 7.15793677e+10 
34 200.25 4.79079046e+10 1.07125331e+11 
35 201.05 6.99184816e+10 1.56342478e+11 
36 201.85 1.07524519e+11 2.40432135e+11 
37 202.65 1.76901042e+11 3.95562755e+11 
38 203.44 2.92793924e+11 6.54707117e+11 
39 204.24 4.25134312e+11 9.50629221e+11 
40 205.04 6.75710346e+11 1.51093427e+12 
41 205.84 1.30167015e+12 2.91062295e+12 
42 206.64 1.80376354e+12 4.03333790e+12 
43 207.44 2.15392466e+12 4.81632196e+12 
44 208.24 3.49393408e+12 7.81267411e+12 
45 209.04 5.67494016e+12 1.26895520e+13 
46 209.84 1.43795505e+13 3.21536524e+13 
47 210.64 1.27559242e+13 2.85231136e+13 
48 211.44 1.45556012e+13 3.25473138e+13 
49 212.24 1.77735344e+13 3.97428312e+13 
50 213.04 1.86256615e+13 4.16482453e+13 
51 213.85 1.46844286e+13 3.28353805e+13 
52 214.65 6.00873120e+12 1.34359314e+13 
53 215.45 3.15230676e+34 4.31852262e+34 
54 216.25 3.50165589e+33 4.79709869e+33 
55 217.05 3.68361423e+32 5.04635505e+32 
56 217.85 4.14400970e+31 5.67705244e+31 
57 218.65 4.65781274e+30 6.38091055e+30 
58 219.46 5.13988096e+29 7.04128931e+29 
59 220.26 5.66661142e+28 7.76284768e+28 
60 221.06 6.21405580e+27 8.51277770e+27 
61 221.86 6.96557378e+26 9.54226685e+26 
62 222.66 7.60317088e+25 1.04156874e+26 
63 223.47 8.37695426e+24 1.14756650e+25 
64 224.27 9.39497750e+23 1.28702208e+24 
65 225.07 1.05755267e+23 1.44874117e+23 
66 225.87 1.18505978e+22 1.62340771e+22 
67 226.68 1.33182013e+21 1.82444795e+21 
68 227.48 1.59928030e+20 2.19083186e+20 
69 228.28 2.20499026e+19 3.02057553e+19 
70 229.08 4.39716604e+18 6.02357688e+18 
71 229.89 1.68178341e+18 2.30382895e+18 
72 230.69 1.61694504e+18 2.21500140e+18 
73 231.49 4.19754176e+18 5.75005972e+18 
74 232.30 2.39887893e+19 3.28612626e+19 
75 233.10 2.19782797e+20 3.01070501e+20 
76 233.90 2.50998735e+21 3.43830688e+21 
77 234.71 3.17281188e+22 4.34626323e+22 
78 235.51 4.07890052e+23 5.58744704e+23 
79 236.32 5.36768340e+24 7.35285167e+24 
80 237.12 7.16585762e+25 9.81602598e+25 
81 237.92 9.87080878e+26 1.35213133e+27 
82 238.73 1.36397419e+28 1.86840452e+28 
83 239.53 1.89706256e+29 2.59863349e+29 
84 240.34 2.51889862e+30 3.45042578e+30 
85 241.14 3.19686313e+31 4.37909809e+31 
86 241.94 3.63728618e+32 4.98237869e+32 
87 242.75 3.73678279e+33 5.11865373e+33 
88 243.55 3.66767902e+34 5.02397946e+34 
89 244.36 7.93694504e+12 1.77475486e+13 
90 245.16 1.83071247e+13 4.09359753e+13 
91 245.97 3.49789848e+13 7.82153878e+13 
92 246.77 3.75876496e+13 8.40485396e+13 
93 247.58 3.31895172e+13 7.42140166e+13 
94 248.38 3.19946866e+13 7.15422942e+13 
95 249.19 3.29069456e+13 7.35821673e+13 
96 249.99 2.38368294e+13 5.33007709e+13 
97 250.80 2.21700180e+13 4.95736673e+13 
98 251.60 2.58632246e+13 5.78319283e+13 
99 252.41 2.72129068e+13 6.08499095e+13 
100 253.21 2.33607930e+13 5.22363212e+13 
101 254.02 1.89735521e+13 4.24261524e+13 
102 254.82 1.64678126e+13 3.68231485e+13 
103 255.63 1.71939011e+13 3.84467317e+13 
104 256.44 2.36796952e+13 5.29494082e+13 
105 257.24 2.82118886e+13 6.30837007e+13 
106 258.05 2.74498286e+13 6.13796827e+13 
107 258.85 2.37020504e+13 5.29993959e+13 
108 259.66 2.69708108e+13 6.03085664e+13 
109 260.46 3.46902864e+13 7.75698385e+13 
110 261.27 4.19848744e+13 9.38810332e+13 
111 262.08 2.78884682e+13 6.23605107e+13 
112 262.88 3.77600610e+13 8.44340632e+13 
113 263.69 3.09797022e+13 6.92727200e+13 
114 264.49 1.38322230e+13 3.09297909e+13 
115 265.30 1.23702032e+35 1.69432921e+35 
116 266.11 1.16899946e+34 1.60115732e+34 
117 266.91 9.89477396e+32 1.35526527e+33 
118 267.72 7.09618682e+31 9.71946165e+31 
119 268.53 4.24856356e+30 5.81912965e+30 
120 269.33 2.82338490e+29 3.86709418e+29 
121 270.14 2.18398607e+28 2.99132277e+28 
122 270.95 1.61624610e+27 2.21370457e+27 
123 271.75 1.05142143e+26 1.44008377e+26 
124 272.56 6.29634138e+24 8.62378582e+24 
125 273.37 3.26957269e+23 4.47815853e+23 
126 274.17 1.72224369e+22 2.35885825e+22 
127 274.98 1.02794864e+21 1.40791824e+21 
128 275.79 7.12035390e+19 9.75228497e+19 
129 276.59 5.53481618e+18 7.58065610e+18 
130 277.40 4.34628466e+17 5.95278990e+17 
131 278.21 3.36367803e+16 4.60697235e+16 
132 279.01 2.71110866e+15 3.71318782e+15 
133 279.82 2.45954913e+14 3.36863770e+14 
134 280.63 2.13554481e+13 2.92486824e+13 
135 281.43 1.94184762e+12 2.65957098e+12 
136 282.24 2.28696524e+11 3.13223850e+11 
137 283.05 3.11008696e+10 4.25957839e+10 
138 283.86 4.59886086e+09 6.29858744e+09 
139 284.66 7.02101501e+08 9.61593569e+08 
140 285.47 1.19469910e+08 1.63624675e+08 
141 286.28 2.57476358e+07 3.52635376e+07 
142 287.09 5.68664728e+06 7.78829074e+06 
143 287.89 1.32515735e+06 1.81488309e+06 
144 288.70 3.27834739e+05 4.48978928e+05 
145 289.51 9.78194970e+04 1.33960668e+05 
146 290.32 3.23279135e+04 4.42684277e+04 
147 291.12 1.13218131e+04 1.55010011e+04 
148 291.93 4.09714521e+03 5.60770971e+03 
149 292.74 1.62697193e+03 2.22546796e+03 
150 293.55 7.19857330e+02 9.83657664e+02 
151 294.35 3.42660149e+02 4.67448747e+02 
152 295.16 1.70249298e+02 2.31589250e+02 
153 295.97 9.15393337e+01 1.23969911e+02 
154 296.78 5.06679731e+01 6.81675380e+01 
155 297.58 3.00587087e+01 4.00460329e+01 
156 298.39 1.86848171e+01 2.45414685e+01 
157 299.20 1.25708937e+01 1.62637151e+01 
158 300.01 8.79376260e+00 1.11020261e+01 
159 300.81 6.26186275e+00 7.71706016e+00 
160 301.62 4.74876668e+00 5.67566309e+00 
161 302.43 3.67849289e+00 4.22957194e+00 
162 303.24 2.96915668e+00 3.26549793e+00 
163 304.04 2.42890651e+00 2.54362949e+00 
164 304.85 2.05866184e+00 2.02618536e+00 
165 305.66 1.77759619e+00 1.67145389e+00 
166 306.47 1.54129747e+00 1.33963051e+00 
167 307.28 1.39183611e+00 1.18572665e+00 
168 308.08 1.26304140e+00 9.88935231e-01 
169 308.89 1.16969767e+00 8.69822795e-01 
170 309.70 1.08789093e+00 7.61183425e-01 
171 310.51 1.03292969e+00 6.73993992e-01 
172 311.32 9.71641515e-01 6.09113017e-01 
173 312.12 9.24218741e-01 5.15081349e-01 
174 312.93 8.86199832e-01 4.76521379e-01 
175 313.74 8.49111542e-01 4.18371969e-01 
176 314.55 8.32867685e-01 4.01674395e-01 
177 315.36 8.13757990e-01 3.69473601e-01 
178 316.16 8.11383059e-01 3.28141317e-01 
179 316.97 7.93829974e-01 3.34057442e-01 
180 317.78 7.99816237e-01 3.05984223e-01 
181 318.59 7.91863488e-01 2.96338384e-01 
182 319.40 7.96093740e-01 2.83118438e-01 
183 320.20 8.06667578e-01 2.69213808e-01 
184 321.01 8.11105659e-01 2.62412568e-01 
185 321.82 8.13113314e-01 2.53655519e-01 
186 322.63 8.27765241e-01 2.47687293e-01 
187 323.43 8.54978911e-01 2.22036851e-01 
188 324.24 8.69508235e-01 2.13948739e-01 
189 325.05 8.79049055e-01 2.29062175e-01 
190 325.86 9.01092347e-01 2.15030014e-01 
191 326.67 9.28048508e-01 2.15164773e-01 
192 327.48 9.41257758e-01 2.07444123e-01 
193 328.28 9.73654671e-01 2.14649444e-01 
194 329.09 1.00537068e+00 1.96615495e-01 
195 329.90 1.03578905e+00 2.07774854e-01 
196 330.71 1.10723453e+00 2.06903605e-01 
197 331.52 1.19365547e+00 1.98829227e-01 
198 332.32 1.32579285e+00 2.13405458e-01 
199 333.13 1.59154728e+00 2.31532957e-01 
200 333.94 2.08577898e+00 2.77912634e-01 
201 334.75 2.86083549e+00 3.49032273e-01 
202 335.55 3.95456190e+00 4.38785259e-01 
203 336.36 5.46810206e+00 5.69688955e-01 
204 337.17 7.79206594e+00 7.33413716e-01 
205 337.98 1.11264007e+01 9.51526575e-01 
206 338.79 1.49935763e+01 1.07972751e+00 
207 339.60 1.93318204e+01 1.18371565e+00 
208 340.40 2.32257318e+01 1.28497060e+00 
209 341.21 2.64407914e+01 1.31187030e+00 
210 342.02 3.02560564e+01 1.39085191e+00 
211 342.83 3.36375993e+01 1.40817997e+00 
212 343.63 3.45725140e+01 1.40319728e+00 
213 344.44 3.58065854e+01 1.47064502e+00 
214 345.25 3.97449291e+01 1.57409252e+00 
215 346.06 4.34621000e+01 1.57706860e+00 
216 346.87 4.58990416e+01 1.53426717e+00 
217 347.67 4.76006151e+01 1.50716405e+00 
218 348.48 4.92374908e+01 1.51323222e+00 
219 349.29 5.20882502e+01 1.52100208e+00 
220 350.10 5.72019790e+01 1.68915213e+00 
221 350.90 6.07352580e+01 1.73365936e+00 
222 351.71 6.08711309e+01 1.65539431e+00 
223 352.52 6.19141299e+01 1.66613586e+00 
224 353.33 6.73548531e+01 1.87082926e+00 
225 354.14 7.41920027e+01 1.96181631e+00 
226 354.94 7.73561966e+01 1.98484310e+00 
227 355.75 7.60305047e+01 1.89477541e+00 
228 356.56 7.16109860e+01 1.75451291e+00 
229 357.37 6.72146759e+01 1.62516210e+00 
230 358.18 6.61833050e+01 1.58921425e+00 
231 358.98 7.40672616e+01 1.81127277e+00 
232 359.79 8.54981830e+01 1.99714911e+00 
233 360.60 8.71501484e+01 1.90170243e+00 
234 361.41 8.57075730e+01 1.85312527e+00 
235 362.21 9.02583087e+01 2.00928716e+00 
236 363.02 9.56693939e+01 2.15084433e+00 
237 363.83 9.87968501e+01 2.13790964e+00 
238 364.64 1.03542648e+02 2.23044672e+00 
239 365.44 1.12795823e+02 2.42138695e+00 
240 366.25 1.20948877e+02 2.53160609e+00 
241 367.06 1.22118232e+02 2.51596962e+00 
242 367.87 1.20072564e+02 2.35874500e+00 
243 368.67 1.21657505e+02 2.46440994e+00 
244 369.48 1.26884375e+02 2.54241870e+00 
245 370.29 1.28167004e+02 2.47675364e+00 
246 371.10 1.26724079e+02 2.42582119e+00 
247 371.90 1.23544623e+02 2.33677482e+00 
248 372.71 1.16672252e+02 2.07245522e+00 
249 373.52 1.10257725e+02 2.03316375e+00 
250 374.33 1.09464198e+02 2.01738800e+00 
251 375.13 1.16905433e+02 2.14588336e+00 
252 375.94 1.27456174e+02 2.34714025e+00 
253 376.75 1.38633931e+02 2.46773517e+00 
254 377.56 1.51683816e+02 2.71087257e+00 
255 378.36 1.55488077e+02 2.59613511e+00 
256 379.17 1.47704594e+02 2.35673749e+00 
257 379.98 1.44212000e+02 2.41477909e+00 
258 380.78 1.43990540e+02 2.40763925e+00 
259 381.59 1.31693986e+02 2.04671921e+00 
260 382.40 1.12191644e+02 1.63496123e+00 
261 383.20 1.02923944e+02 1.57758769e+00 
262 384.01 1.11195081e+02 1.83891366e+00 
263 384.82 1.25905599e+02 2.21095039e+00 
264 385.63 1.32202771e+02 2.23123274e+00 
265 386.43 1.33284903e+02 2.17411544e+00 
266 387.24 1.34167954e+02 2.15384898e+00 
267 388.05 1.36224182e+02 2.19638111e+00 
268 388.85 1.44220044e+02 2.35561444e+00 
269 389.66 1.57566183e+02 2.66218083e+00 
270 390.47 1.68339450e+02 2.86718138e+00 
271 391.27 1.69311525e+02 2.84642784e+00 
272 392.08 1.51471603e+02 2.37969842e+00 
273 392.89 1.23094104e+02 1.77005126e+00 
274 393.69 1.15685291e+02 1.80337958e+00 
275 394.50 1.37523148e+02 2.44709757e+00 
276 395.31 1.54275273e+02 2.65349146e+00 
277 396.11 1.44381130e+02 2.20210603e+00 
278 396.92 1.36374222e+02 2.14182515e+00 
279 397.73 1.60054832e+02 2.83207199e+00 
280 398.53 1.97511223e+02 3.51064764e+00 
281 399.34 2.21588235e+02 3.75522482e+00 
282 400.15 2.33262690e+02 3.85305000e+00 
283 400.95 2.41290237e+02 3.99361214e+00 
284 401.76 2.47778729e+02 4.13930372e+00 
285 402.57 2.49700655e+02 4.09951290e+00 
286 403.37 2.48249298e+02 4.02507510e+00 
287 404.18 2.46891657e+02 4.06087073e+00 
288 404.99 2.45729913e+02 4.06115469e+00 
289 405.79 2.44592322e+02 4.15171645e+00 
290 406.60 2.45299139e+02 4.14978286e+00 
291 407.40 2.51238047e+02 4.33243464e+00 
292 408.21 2.60715180e+02 4.57632482e+00 
293 409.02 2.64607952e+02 4.69080364e+00 
294 409.82 2.61591248e+02 4.74908498e+00 
295 410.63 2.64295082e+02 4.92635215e+00 
296 411.43 2.75297352e+02 5.18722402e+00 
297 412.24 2.82794904e+02 5.38960399e+00 
298 413.05 2.83472111e+02 5.34488979e+00 
299 413.85 2.83034269e+02 5.43523098e+00 
300 414.66 2.83091778e+02 5.47313627e+00 
301 415.46 2.83846314e+02 5.50299170e+00 
302 416.27 2.83641139e+02 5.56320486e+00 
303 417.08 2.79751095e+02 5.53874315e+00 
304 417.88 2.74599547e+02 5.44005946e+00 
305 418.69 2.71907781e+02 5.31560575e+00 
306 419.49 2.72161932e+02 5.25745566e+00 
307 420.30 2.75365242e+02 5.28955198e+00 
308 421.11 2.78162287e+02 5.24089333e+00 
309 421.91 2.75836584e+02 5.01119399e+00 
310 422.72 2.71127254e+02 4.69490312e+00 
311 423.52 2.70653803e+02 4.51528078e+00 
312 424.33 2.73427457e+02 4.33058256e+00 
313 425.13 2.75403663e+02 4.14587719e+00 
314 425.94 2.75707331e+02 3.96399360e+00 
315 426.74 2.75446554e+02 3.86711612e+00 
316 427.55 2.75004328e+02 3.67928481e+00 
317 428.36 2.71837001e+02 3.45332470e+00 
318 429.16 2.61631728e+02 3.00807229e+00 
319 429.96 2.50716509e+02 2.89188937e+00 
320 430.77 2.57391574e+02 2.99815621e+00 
321 431.58 2.84524825e+02 3.35823073e+00 
322 432.38 3.13401684e+02 3.77962967e+00 
323 433.19 3.28167285e+02 4.00244353e+00 
324 433.99 3.36080349e+02 4.07543660e+00 
325 434.80 3.49879674e+02 4.18767097e+00 
326 435.60 3.69252889e+02 4.52409538e+00 
327 436.41 3.82995867e+02 4.61324915e+00 
328 437.21 3.84070398e+02 4.34461141e+00 
329 438.02 3.79882113e+02 4.33811097e+00 
330 438.82 3.82260690e+02 4.54653245e+00 
331 439.63 3.93906302e+02 4.76584189e+00 
332 440.43 4.10822276e+02 4.89198244e+00 
333 441.24 4.28844372e+02 5.39190624e+00 
334 442.04 4.45029014e+02 5.71742705e+00 
335 442.85 4.56622308e+02 6.04354760e+00 
336 443.65 4.63415480e+02 6.05363076e+00 
337 444.45 4.66088668e+02 5.92279648e+00 
338 445.26 4.65868611e+02 5.55547412e+00 
339 446.06 4.69726038e+02 5.78165713e+00 
340 446.87 4.80892697e+02 6.26727688e+00 
341 447.67 4.94829760e+02 6.33144276e+00 
342 448.48 5.06275865e+02 6.68079459e+00 
343 449.28 5.16363742e+02 6.62220807e+00 
344 450.09 5.27649144e+02 6.84952118e+00 
345 450.89 5.34292582e+02 6.93162250e+00 
346 451.70 5.30013045e+02 6.81826380e+00 
347 452.50 5.20037038e+02 6.63583928e+00 
348 453.30 5.15080942e+02 6.61323565e+00 
349 454.11 5.17856438e+02 6.57076194e+00 
350 454.91 5.26133042e+02 6.83938238e+00 
351 455.72 5.35230159e+02 7.01600968e+00 
352 456.52 5.42708808e+02 7.17210148e+00 
353 457.32 5.46104987e+02 7.21011100e+00 
354 458.13 5.45208118e+02 7.30565911e+00 
355 458.93 5.44158395e+02 7.29842666e+00 
356 459.74 5.47681555e+02 7.68380058e+00 
357 460.54 5.54850073e+02 7.78927116e+00 
358 461.34 5.63127966e+02 7.95111439e+00 
359 462.15 5.68704426e+02 8.03262647e+00 
360 462.95 5.68946151e+02 7.94038282e+00 
361 463.76 5.65245343e+02 7.77943445e+00 
362 464.56 5.61499717e+02 7.62651467e+00 
363 465.36 5.59145680e+02 7.79108123e+00 
364 466.17 5.58198936e+02 7.99286165e+00 
365 466.97 5.58994709e+02 7.97130503e+00 
366 467.77 5.61633674e+02 7.95116388e+00 
367 468.58 5.64819149e+02 8.11343997e+00 
368 469.38 5.65337293e+02 7.86156585e+00 
369 470.18 5.66197958e+02 7.97848601e+00 
370 470.99 5.71528472e+02 7.71338341e+00 
371 471.79 5.79867963e+02 7.45094676e+00 
372 472.59 5.87762085e+02 7.70499166e+00 
373 473.40 5.93013689e+02 7.72810959e+00 
374 474.20 5.96454837e+02 7.72906103e+00 
375 475.00 5.98677295e+02 7.68266536e+00 
376 475.81 6.00675527e+02 7.84070322e+00 
377 476.61 6.04113051e+02 7.82404020e+00 
378 477.41 6.10262139e+02 8.13480442e+00 
379 478.21 6.16010306e+02 8.01164047e+00 
380 479.02 6.20533058e+02 8.41756766e+00 
381 479.82 6.22822451e+02 8.32058090e+00 
382 480.62 6.25214417e+02 8.01977449e+00 
383 481.43 6.26722036e+02 8.06374115e+00 
384 482.23 6.25941748e+02 8.39773548e+00 
385 483.03 6.21188015e+02 7.97904169e+00 
386 483.84 6.11209539e+02 7.93024407e+00 
387 484.64 5.91734753e+02 7.41371618e+00 
388 485.44 5.68073820e+02 7.05374086e+00 
389 486.24 5.54354537e+02 7.23808952e+00 
390 487.04 5.56805365e+02 7.24543251e+00 
391 487.85 5.72688255e+02 7.63857480e+00 
392 488.65 5.91003336e+02 7.09478538e+00 
393 489.45 6.04417149e+02 7.45581501e+00 
394 490.26 6.09031570e+02 7.46204043e+00 
395 491.06 6.06693990e+02 6.89994297e+00 
396 491.86 6.02983142e+02 7.15583644e+00 
397 492.66 6.02860302e+02 7.21831149e+00 
398 493.46 6.08573230e+02 7.16471149e+00 
399 494.27 6.15576461e+02 7.11816176e+00 
400 495.07 6.19774330e+02 7.40369945e+00 
401 495.87 6.21069954e+02 6.96722369e+00 
402 496.67 6.18847625e+02 7.00485006e+00 
403 497.48 6.14525277e+02 7.20024251e+00 
404 498.28 6.09511572e+02 6.81529858e+00 
405 499.08 6.03735164e+02 6.62081408e+00 
406 499.88 5.97378174e+02 6.50988540e+00 
407 500.68 5.92024699e+02 6.52034142e+00 
408 501.48 5.89056961e+02 6.17159168e+00 
409 502.29 5.90914721e+02 6.07492179e+00 
410 503.09 5.95171419e+02 6.15716481e+00 
411 503.89 6.00172889e+02 5.71074064e+00 
412 504.69 6.06786712e+02 6.11435798e+00 
413 505.49 6.12064057e+02 6.39391132e+00 
414 506.29 6.13402166e+02 6.52081768e+00 
415 507.09 6.10833486e+02 6.58073979e+00 
416 507.90 6.07470831e+02 6.46462373e+00 
417 508.70 6.06180778e+02 6.52610505e+00 
418 509.50 6.06708896e+02 6.51357199e+00 
419 510.30 6.07754736e+02 6.24079464e+00 
420 511.10 6.07299677e+02 6.52120766e+00 
421 511.90 6.03102401e+02 5.88756819e+00 
422 512.71 5.97172931e+02 6.26043654e+00 
423 513.51 5.90079849e+02 6.08849238e+00 
424 514.31 5.84288118e+02 6.06100334e+00 
425 515.11 5.75495382e+02 6.03963534e+00 
426 515.91 5.60474968e+02 5.48156383e+00 
427 516.71 5.45574436e+02 5.64105885e+00 
428 517.51 5.36906315e+02 5.71400088e+00 
429 518.31 5.40069731e+02 5.81395544e+00 
430 519.11 5.53157372e+02 6.28878772e+00 
431 519.91 5.66528366e+02 6.11862280e+00 
432 520.71 5.76824190e+02 6.04989879e+00 
433 521.52 5.81652777e+02 6.30207090e+00 
434 522.32 5.84013053e+02 6.20728747e+00 
435 523.12 5.88058863e+02 6.21349304e+00 
436 523.92 5.92084112e+02 5.93989055e+00 
437 524.72 5.92634688e+02 6.53822815e+00 
438 525.52 5.84494203e+02 6.15989546e+00 
439 526.32 5.74240546e+02 6.10311443e+00 
440 527.12 5.71732012e+02 6.21272272e+00 
441 527.92 5.79312044e+02 6.46859086e+00 
442 528.72 5.92355021e+02 6.78100784e+00 
443 529.52 6.03724546e+02 6.79664666e+00 
444 530.32 6.09308548e+02 7.14295169e+00 
445 531.12 6.07288018e+02 6.85550484e+00 
446 531.92 6.01478393e+02 6.66476516e+00 
447 532.72 5.96071969e+02 6.57977393e+00 
448 533.52 5.94998699e+02 6.45864173e+00 
449 534.32 5.99609630e+02 6.76903493e+00 
450 535.12 6.04582485e+02 6.81849972e+00 
451 535.92 6.05812974e+02 6.87094403e+00 
452 536.72 6.04464420e+02 6.97827026e+00 
453 537.52 6.01266019e+02 6.73390600e+00 
454 538.32 5.97573487e+02 7.21741871e+00 
455 539.12 5.92004979e+02 6.88016438e+00 
456 539.92 5.87345574e+02 7.00484460e+00 
457 540.72 5.85712791e+02 7.29616020e+00 
458 541.52 5.87280315e+02 7.14760770e+00 
