% C0 (TOA Count Rate, /ms) for 4STAR VIS spectrometer (1044 channels) derived from 20160109starsun.mat and recorded on 2016-01-09 23:29:46.
% Modified Langley processed for 0.8823-0.9945 micron region
Pix Wavelength C0 C0err
0 173.18 -1.00000000e+00 -1.00000000e+00 
1 173.97 3.75846519e+02 -1.00000000e+00 
2 174.77 8.58475054e+02 -1.00000000e+00 
3 175.56 9.87018948e+02 -1.00000000e+00 
4 176.36 5.35523260e+04 -1.00000000e+00 
5 177.15 6.51177464e+04 -1.00000000e+00 
6 177.94 7.63010618e+04 -1.00000000e+00 
7 178.74 8.91187669e+04 -1.00000000e+00 
8 179.53 1.06495200e+05 -1.00000000e+00 
9 180.33 1.24257237e+05 -1.00000000e+00 
10 181.12 1.42233687e+05 -1.00000000e+00 
11 181.92 1.68484434e+05 -1.00000000e+00 
12 182.71 1.99704324e+05 -1.00000000e+00 
13 183.51 2.31649859e+05 -1.00000000e+00 
14 184.30 2.61543533e+05 -1.00000000e+00 
15 185.10 3.14113676e+05 -1.00000000e+00 
16 185.89 3.70911826e+05 -1.00000000e+00 
17 186.69 4.35028050e+05 -1.00000000e+00 
18 187.49 5.31124119e+05 -1.00000000e+00 
19 188.28 6.32925424e+05 -1.00000000e+00 
20 189.08 7.85970258e+05 -1.00000000e+00 
21 189.88 9.74420937e+05 -1.00000000e+00 
22 190.67 1.20894709e+06 -1.00000000e+00 
23 191.47 1.52045582e+06 -1.00000000e+00 
24 192.27 1.90615561e+06 -1.00000000e+00 
25 193.07 2.33382339e+06 -1.00000000e+00 
26 193.86 2.80883174e+06 -1.00000000e+00 
27 194.66 3.57370476e+06 -1.00000000e+00 
28 195.46 4.52928682e+06 -1.00000000e+00 
29 196.26 5.95702245e+06 -1.00000000e+00 
30 197.05 8.17325746e+06 -1.00000000e+00 
31 197.85 1.11645651e+07 -1.00000000e+00 
32 198.65 1.35689750e+07 -1.00000000e+00 
33 199.45 1.92119271e+07 -1.00000000e+00 
34 200.25 2.71525907e+07 -1.00000000e+00 
35 201.05 3.82924138e+07 -1.00000000e+00 
36 201.85 3.44742171e+07 -1.00000000e+00 
37 202.64 2.46856664e+07 -1.00000000e+00 
38 203.44 1.72150267e+07 -1.00000000e+00 
39 204.24 1.22044317e+07 -1.00000000e+00 
40 205.04 8.76751223e+06 -1.00000000e+00 
41 205.84 6.20378140e+06 -1.00000000e+00 
42 206.64 4.39699260e+06 -1.00000000e+00 
43 207.44 3.13421882e+06 -1.00000000e+00 
44 208.24 2.26229483e+06 -1.00000000e+00 
45 209.04 1.60525528e+06 -1.00000000e+00 
46 209.84 1.13738546e+06 -1.00000000e+00 
47 210.64 8.19136774e+05 -1.00000000e+00 
48 211.44 5.81304568e+05 -1.00000000e+00 
49 212.24 4.10416921e+05 -1.00000000e+00 
50 213.05 2.93846970e+05 -1.00000000e+00 
51 213.85 2.09036199e+05 -1.00000000e+00 
52 214.65 1.48225441e+05 -1.00000000e+00 
53 215.45 1.04479022e+05 -1.00000000e+00 
54 216.25 7.46408769e+04 -1.00000000e+00 
55 217.05 5.42361207e+04 -1.00000000e+00 
56 217.85 3.78769249e+04 -1.00000000e+00 
57 218.65 2.72705782e+04 -1.00000000e+00 
58 219.46 1.93062913e+04 -1.00000000e+00 
59 220.26 1.37258869e+04 -1.00000000e+00 
60 221.06 9.61435095e+03 -1.00000000e+00 
61 221.86 7.02422456e+03 -1.00000000e+00 
62 222.66 4.92595670e+03 -1.00000000e+00 
63 223.47 3.53564346e+03 -1.00000000e+00 
64 224.27 2.54485752e+03 -1.00000000e+00 
65 225.07 1.81022673e+03 -1.00000000e+00 
66 225.87 1.31412278e+03 -1.00000000e+00 
67 226.68 9.11562119e+02 -1.00000000e+00 
68 227.48 6.74798703e+02 -1.00000000e+00 
69 228.28 4.88107601e+02 -1.00000000e+00 
70 229.09 3.81371855e+02 -1.00000000e+00 
71 229.89 3.28961428e+02 -1.00000000e+00 
72 230.69 3.26909092e+02 -1.00000000e+00 
73 231.49 3.81366064e+02 -1.00000000e+00 
74 232.30 4.92808185e+02 -1.00000000e+00 
75 233.10 6.93912317e+02 -1.00000000e+00 
76 233.91 1.00475160e+03 -1.00000000e+00 
77 234.71 1.47777600e+03 -1.00000000e+00 
78 235.51 2.21552170e+03 -1.00000000e+00 
79 236.32 3.25611703e+03 -1.00000000e+00 
80 237.12 4.90216213e+03 -1.00000000e+00 
81 237.92 7.40420469e+03 -1.00000000e+00 
82 238.73 1.10662229e+04 -1.00000000e+00 
83 239.53 1.65768364e+04 -1.00000000e+00 
84 240.34 2.43460308e+04 -1.00000000e+00 
85 241.14 3.55617320e+04 -1.00000000e+00 
86 241.94 5.19673573e+04 -1.00000000e+00 
87 242.75 7.51809959e+04 -1.00000000e+00 
88 243.55 1.06383790e+05 -1.00000000e+00 
89 244.36 1.48615879e+05 -1.00000000e+00 
90 245.16 2.01500228e+05 -1.00000000e+00 
91 245.97 2.70847447e+05 -1.00000000e+00 
92 246.77 3.61389019e+05 -1.00000000e+00 
93 247.58 4.66560200e+05 -1.00000000e+00 
94 248.38 5.89180451e+05 -1.00000000e+00 
95 249.19 7.44266906e+05 -1.00000000e+00 
96 249.99 8.84081899e+05 -1.00000000e+00 
97 250.80 1.04047613e+06 -1.00000000e+00 
98 251.60 1.15007270e+06 -1.00000000e+00 
99 252.41 1.29690989e+06 -1.00000000e+00 
100 253.21 1.40073554e+06 -1.00000000e+00 
101 254.02 1.47136882e+06 -1.00000000e+00 
102 254.83 1.53753807e+06 -1.00000000e+00 
103 255.63 1.52921654e+06 -1.00000000e+00 
104 256.44 1.42191208e+06 -1.00000000e+00 
105 257.24 1.30764205e+06 -1.00000000e+00 
106 258.05 1.19146532e+06 -1.00000000e+00 
107 258.85 1.05507867e+06 -1.00000000e+00 
108 259.66 8.91204493e+05 -1.00000000e+00 
109 260.46 6.99105559e+05 -1.00000000e+00 
110 261.27 5.55640884e+05 -1.00000000e+00 
111 262.08 4.30023657e+05 -1.00000000e+00 
112 262.88 3.27323511e+05 -1.00000000e+00 
113 263.69 2.37614780e+05 -1.00000000e+00 
114 264.50 1.80096649e+05 -1.00000000e+00 
115 265.30 1.30034199e+05 -1.00000000e+00 
116 266.11 9.16240322e+04 -1.00000000e+00 
117 266.91 6.21869060e+04 -1.00000000e+00 
118 267.72 4.19670736e+04 -1.00000000e+00 
119 268.53 2.73678493e+04 -1.00000000e+00 
120 269.33 1.76738771e+04 -1.00000000e+00 
121 270.14 1.21233014e+04 -1.00000000e+00 
122 270.95 8.13868732e+03 -1.00000000e+00 
123 271.75 5.27232695e+03 -1.00000000e+00 
124 272.56 3.45600002e+03 -1.00000000e+00 
125 273.37 2.21735133e+03 -1.00000000e+00 
126 274.17 1.41131332e+03 -1.00000000e+00 
127 274.98 9.22782836e+02 -1.00000000e+00 
128 275.79 6.09731472e+02 -1.00000000e+00 
129 276.59 4.11535180e+02 -1.00000000e+00 
130 277.40 2.82179137e+02 -1.00000000e+00 
131 278.21 1.89533022e+02 -1.00000000e+00 
132 279.01 1.30557382e+02 -1.00000000e+00 
133 279.82 8.93008590e+01 -1.00000000e+00 
134 280.63 6.08279980e+01 -1.00000000e+00 
135 281.44 4.34441608e+01 -1.00000000e+00 
136 282.24 3.05711395e+01 -1.00000000e+00 
137 283.05 2.27310808e+01 -1.00000000e+00 
138 283.86 1.70262974e+01 -1.00000000e+00 
139 284.66 1.31177533e+01 -1.00000000e+00 
140 285.47 9.61871463e+00 -1.00000000e+00 
141 286.28 7.67334330e+00 -1.00000000e+00 
142 287.09 6.06574008e+00 -1.00000000e+00 
143 287.89 4.87305801e+00 -1.00000000e+00 
144 288.70 3.97038128e+00 -1.00000000e+00 
145 289.51 3.30293940e+00 -1.00000000e+00 
146 290.32 2.77357284e+00 -1.00000000e+00 
147 291.12 2.39002593e+00 -1.00000000e+00 
148 291.93 2.03777822e+00 -1.00000000e+00 
149 292.74 1.80054029e+00 -1.00000000e+00 
150 293.55 1.54674712e+00 -1.00000000e+00 
151 294.35 1.37258451e+00 -1.00000000e+00 
152 295.16 1.24906749e+00 -1.00000000e+00 
153 295.97 1.14198080e+00 -1.00000000e+00 
154 296.78 1.03557720e+00 -1.00000000e+00 
155 297.58 9.58736797e-01 -1.00000000e+00 
156 298.39 9.00186189e-01 -1.00000000e+00 
157 299.20 8.43386551e-01 -1.00000000e+00 
158 300.01 7.93439719e-01 -1.00000000e+00 
159 300.81 7.58984460e-01 -1.00000000e+00 
160 301.62 7.23340383e-01 -1.00000000e+00 
161 302.43 6.95088211e-01 -1.00000000e+00 
162 303.24 6.70872063e-01 -1.00000000e+00 
163 304.05 6.60120590e-01 -1.00000000e+00 
164 304.85 6.35243256e-01 -1.00000000e+00 
165 305.66 6.07780044e-01 -1.00000000e+00 
166 306.47 6.13661142e-01 -1.00000000e+00 
167 307.28 5.93277195e-01 -1.00000000e+00 
168 308.08 5.93906166e-01 -1.00000000e+00 
169 308.89 5.80390334e-01 -1.00000000e+00 
170 309.70 5.72872078e-01 -1.00000000e+00 
171 310.51 5.67716391e-01 -1.00000000e+00 
172 311.32 5.77034908e-01 -1.00000000e+00 
173 312.12 5.68390087e-01 -1.00000000e+00 
174 312.93 5.71457669e-01 -1.00000000e+00 
175 313.74 5.74040545e-01 -1.00000000e+00 
176 314.55 5.72585258e-01 -1.00000000e+00 
177 315.36 5.74135342e-01 -1.00000000e+00 
178 316.16 5.83802178e-01 -1.00000000e+00 
179 316.97 5.90757980e-01 -1.00000000e+00 
180 317.78 5.97501695e-01 -1.00000000e+00 
181 318.59 5.94575268e-01 -1.00000000e+00 
182 319.39 6.15523461e-01 -1.00000000e+00 
183 320.20 6.32795759e-01 -1.00000000e+00 
184 321.01 6.38091782e-01 -1.00000000e+00 
185 321.82 6.49315338e-01 -1.00000000e+00 
186 322.63 6.74862901e-01 -1.00000000e+00 
187 323.43 6.93290298e-01 -1.00000000e+00 
188 324.24 7.11639385e-01 -1.00000000e+00 
189 325.05 7.25463933e-01 -1.00000000e+00 
190 325.86 7.45434966e-01 -1.00000000e+00 
191 326.67 7.68950790e-01 -1.00000000e+00 
192 327.48 7.94574211e-01 -1.00000000e+00 
193 328.28 8.23144069e-01 -1.00000000e+00 
194 329.09 8.59304816e-01 -1.00000000e+00 
195 329.90 8.81526906e-01 -1.00000000e+00 
196 330.71 9.38134076e-01 -1.00000000e+00 
197 331.51 9.97379601e-01 -1.00000000e+00 
198 332.32 1.10002845e+00 -1.00000000e+00 
199 333.13 1.28317308e+00 -1.00000000e+00 
200 333.94 1.67164708e+00 -1.00000000e+00 
201 334.75 2.28613230e+00 -1.00000000e+00 
202 335.56 3.17191612e+00 -1.00000000e+00 
203 336.36 4.51267388e+00 -1.00000000e+00 
204 337.17 6.59135584e+00 -1.00000000e+00 
205 337.98 9.68485508e+00 -1.00000000e+00 
206 338.79 1.34661893e+01 -1.00000000e+00 
207 339.59 1.77030661e+01 -1.00000000e+00 
208 340.40 2.17059598e+01 -1.00000000e+00 
209 341.21 2.49210128e+01 -1.00000000e+00 
210 342.02 2.87059032e+01 -1.00000000e+00 
211 342.83 3.23035920e+01 -1.00000000e+00 
212 343.64 3.34903209e+01 -1.00000000e+00 
213 344.44 3.45008297e+01 -1.00000000e+00 
214 345.25 3.82785562e+01 -1.00000000e+00 
215 346.06 4.22446343e+01 -1.00000000e+00 
216 346.87 4.48693228e+01 -1.00000000e+00 
217 347.67 4.67348595e+01 -1.00000000e+00 
218 348.48 4.83401960e+01 -1.00000000e+00 
219 349.29 5.10310608e+01 -1.00000000e+00 
220 350.10 5.59905775e+01 -1.00000000e+00 
221 350.91 5.98449013e+01 -1.00000000e+00 
222 351.71 6.03120670e+01 -1.00000000e+00 
223 352.52 6.11770618e+01 -1.00000000e+00 
224 353.33 6.62993178e+01 -1.00000000e+00 
225 354.14 7.34817697e+01 -1.00000000e+00 
226 354.94 7.71523041e+01 -1.00000000e+00 
227 355.75 7.62973335e+01 -1.00000000e+00 
228 356.56 7.21008887e+01 -1.00000000e+00 
229 357.37 6.77569445e+01 -1.00000000e+00 
230 358.18 6.63643115e+01 -1.00000000e+00 
231 358.98 7.35880475e+01 -1.00000000e+00 
232 359.79 8.56523568e+01 -1.00000000e+00 
233 360.60 8.83154706e+01 -1.00000000e+00 
234 361.41 8.66136315e+01 -1.00000000e+00 
235 362.21 9.08896565e+01 -1.00000000e+00 
236 363.02 9.65905638e+01 -1.00000000e+00 
237 363.83 1.00006033e+02 -1.00000000e+00 
238 364.64 1.04535516e+02 -1.00000000e+00 
239 365.44 1.13649088e+02 -1.00000000e+00 
240 366.25 1.22494916e+02 -1.00000000e+00 
241 367.06 1.24290486e+02 -1.00000000e+00 
242 367.87 1.22407641e+02 -1.00000000e+00 
243 368.67 1.23641084e+02 -1.00000000e+00 
244 369.48 1.29165847e+02 -1.00000000e+00 
245 370.29 1.31095519e+02 -1.00000000e+00 
246 371.10 1.29696802e+02 -1.00000000e+00 
247 371.90 1.26783667e+02 -1.00000000e+00 
248 372.71 1.20140712e+02 -1.00000000e+00 
249 373.52 1.13268410e+02 -1.00000000e+00 
250 374.33 1.11850591e+02 -1.00000000e+00 
251 375.13 1.19050591e+02 -1.00000000e+00 
252 375.94 1.29877379e+02 -1.00000000e+00 
253 376.75 1.41194326e+02 -1.00000000e+00 
254 377.55 1.54795434e+02 -1.00000000e+00 
255 378.36 1.60156562e+02 -1.00000000e+00 
256 379.17 1.52716160e+02 -1.00000000e+00 
257 379.98 1.48432406e+02 -1.00000000e+00 
258 380.78 1.48927371e+02 -1.00000000e+00 
259 381.59 1.37707876e+02 -1.00000000e+00 
260 382.40 1.17491250e+02 -1.00000000e+00 
261 383.21 1.06396686e+02 -1.00000000e+00 
262 384.01 1.13719351e+02 -1.00000000e+00 
263 384.82 1.29354826e+02 -1.00000000e+00 
264 385.63 1.37021661e+02 -1.00000000e+00 
265 386.43 1.38581840e+02 -1.00000000e+00 
266 387.24 1.39824603e+02 -1.00000000e+00 
267 388.05 1.41880717e+02 -1.00000000e+00 
268 388.85 1.49759998e+02 -1.00000000e+00 
269 389.66 1.63773387e+02 -1.00000000e+00 
270 390.47 1.76042937e+02 -1.00000000e+00 
271 391.27 1.78930865e+02 -1.00000000e+00 
272 392.08 1.62569867e+02 -1.00000000e+00 
273 392.89 1.32646613e+02 -1.00000000e+00 
274 393.69 1.22121557e+02 -1.00000000e+00 
275 394.50 1.44391238e+02 -1.00000000e+00 
276 395.31 1.65053807e+02 -1.00000000e+00 
277 396.11 1.56618898e+02 -1.00000000e+00 
278 396.92 1.46017916e+02 -1.00000000e+00 
279 397.73 1.69225830e+02 -1.00000000e+00 
280 398.53 2.10775482e+02 -1.00000000e+00 
281 399.34 2.39019152e+02 -1.00000000e+00 
282 400.15 2.52813917e+02 -1.00000000e+00 
283 400.95 2.62058999e+02 -1.00000000e+00 
284 401.76 2.69618811e+02 -1.00000000e+00 
285 402.57 2.72404565e+02 -1.00000000e+00 
286 403.37 2.71009427e+02 -1.00000000e+00 
287 404.18 2.69675709e+02 -1.00000000e+00 
288 404.98 2.68521715e+02 -1.00000000e+00 
289 405.79 2.67205350e+02 -1.00000000e+00 
290 406.60 2.67633414e+02 -1.00000000e+00 
291 407.40 2.73549557e+02 -1.00000000e+00 
292 408.21 2.83898843e+02 -1.00000000e+00 
293 409.02 2.89059608e+02 -1.00000000e+00 
294 409.82 2.85961513e+02 -1.00000000e+00 
295 410.63 2.87888630e+02 -1.00000000e+00 
296 411.44 2.99984120e+02 -1.00000000e+00 
297 412.24 3.09475104e+02 -1.00000000e+00 
298 413.05 3.11216602e+02 -1.00000000e+00 
299 413.85 3.11361154e+02 -1.00000000e+00 
300 414.66 3.12241949e+02 -1.00000000e+00 
301 415.46 3.13714103e+02 -1.00000000e+00 
302 416.27 3.14536329e+02 -1.00000000e+00 
303 417.08 3.11290678e+02 -1.00000000e+00 
304 417.88 3.06116628e+02 -1.00000000e+00 
305 418.69 3.03924307e+02 -1.00000000e+00 
306 419.49 3.04986437e+02 -1.00000000e+00 
307 420.30 3.09260667e+02 -1.00000000e+00 
308 421.11 3.13737943e+02 -1.00000000e+00 
309 421.91 3.12362763e+02 -1.00000000e+00 
310 422.72 3.07025927e+02 -1.00000000e+00 
311 423.52 3.06005746e+02 -1.00000000e+00 
312 424.33 3.09157613e+02 -1.00000000e+00 
313 425.13 3.11247406e+02 -1.00000000e+00 
314 425.94 3.11083506e+02 -1.00000000e+00 
315 426.74 3.09934409e+02 -1.00000000e+00 
316 427.55 3.08473246e+02 -1.00000000e+00 
317 428.35 3.04182337e+02 -1.00000000e+00 
318 429.16 2.92100529e+02 -1.00000000e+00 
319 429.96 2.77210286e+02 -1.00000000e+00 
320 430.77 2.79792359e+02 -1.00000000e+00 
321 431.58 3.06007900e+02 -1.00000000e+00 
322 432.38 3.36048253e+02 -1.00000000e+00 
323 433.19 3.50699268e+02 -1.00000000e+00 
324 433.99 3.56437255e+02 -1.00000000e+00 
325 434.80 3.67770689e+02 -1.00000000e+00 
326 435.60 3.85708248e+02 -1.00000000e+00 
327 436.41 3.98860102e+02 -1.00000000e+00 
328 437.21 3.98761816e+02 -1.00000000e+00 
329 438.02 3.91769220e+02 -1.00000000e+00 
330 438.82 3.90827187e+02 -1.00000000e+00 
331 439.63 3.99976026e+02 -1.00000000e+00 
332 440.43 4.15313243e+02 -1.00000000e+00 
333 441.24 4.31647467e+02 -1.00000000e+00 
334 442.04 4.46642869e+02 -1.00000000e+00 
335 442.84 4.57062871e+02 -1.00000000e+00 
336 443.65 4.62818154e+02 -1.00000000e+00 
337 444.45 4.64637883e+02 -1.00000000e+00 
338 445.26 4.63378131e+02 -1.00000000e+00 
339 446.06 4.65209699e+02 -1.00000000e+00 
340 446.87 4.74312844e+02 -1.00000000e+00 
341 447.67 4.87395110e+02 -1.00000000e+00 
342 448.48 4.97776734e+02 -1.00000000e+00 
343 449.28 5.07000597e+02 -1.00000000e+00 
344 450.09 5.17590951e+02 -1.00000000e+00 
345 450.89 5.24562721e+02 -1.00000000e+00 
346 451.69 5.21051889e+02 -1.00000000e+00 
347 452.50 5.10859473e+02 -1.00000000e+00 
348 453.30 5.04766648e+02 -1.00000000e+00 
349 454.11 5.06567655e+02 -1.00000000e+00 
350 454.91 5.14023556e+02 -1.00000000e+00 
351 455.72 5.22581808e+02 -1.00000000e+00 
352 456.52 5.29822330e+02 -1.00000000e+00 
353 457.32 5.33223027e+02 -1.00000000e+00 
354 458.13 5.32210138e+02 -1.00000000e+00 
355 458.93 5.30917454e+02 -1.00000000e+00 
356 459.74 5.33670911e+02 -1.00000000e+00 
357 460.54 5.40583245e+02 -1.00000000e+00 
358 461.34 5.48617010e+02 -1.00000000e+00 
359 462.15 5.54297533e+02 -1.00000000e+00 
360 462.95 5.55006842e+02 -1.00000000e+00 
361 463.76 5.51569808e+02 -1.00000000e+00 
362 464.56 5.47537638e+02 -1.00000000e+00 
363 465.36 5.44574446e+02 -1.00000000e+00 
364 466.17 5.42973588e+02 -1.00000000e+00 
365 466.97 5.43460163e+02 -1.00000000e+00 
366 467.77 5.46239052e+02 -1.00000000e+00 
367 468.58 5.49861401e+02 -1.00000000e+00 
368 469.38 5.51139698e+02 -1.00000000e+00 
369 470.18 5.51561119e+02 -1.00000000e+00 
370 470.99 5.56346127e+02 -1.00000000e+00 
371 471.79 5.64498273e+02 -1.00000000e+00 
372 472.59 5.72009718e+02 -1.00000000e+00 
373 473.40 5.77166750e+02 -1.00000000e+00 
374 474.20 5.80492040e+02 -1.00000000e+00 
375 475.00 5.82634485e+02 -1.00000000e+00 
376 475.81 5.84103013e+02 -1.00000000e+00 
377 476.61 5.87096006e+02 -1.00000000e+00 
378 477.41 5.92843049e+02 -1.00000000e+00 
379 478.21 5.98868826e+02 -1.00000000e+00 
380 479.02 6.03124534e+02 -1.00000000e+00 
381 479.82 6.05468806e+02 -1.00000000e+00 
382 480.62 6.08086188e+02 -1.00000000e+00 
383 481.43 6.09571634e+02 -1.00000000e+00 
384 482.23 6.08604420e+02 -1.00000000e+00 
385 483.03 6.04216125e+02 -1.00000000e+00 
386 483.84 5.94674338e+02 -1.00000000e+00 
387 484.64 5.76381263e+02 -1.00000000e+00 
388 485.44 5.52925490e+02 -1.00000000e+00 
389 486.24 5.37780936e+02 -1.00000000e+00 
390 487.05 5.38816396e+02 -1.00000000e+00 
391 487.85 5.53495622e+02 -1.00000000e+00 
392 488.65 5.72080354e+02 -1.00000000e+00 
393 489.45 5.85414325e+02 -1.00000000e+00 
394 490.26 5.90585491e+02 -1.00000000e+00 
395 491.06 5.88909523e+02 -1.00000000e+00 
396 491.86 5.84416823e+02 -1.00000000e+00 
397 492.66 5.83238090e+02 -1.00000000e+00 
398 493.46 5.88115892e+02 -1.00000000e+00 
399 494.27 5.94909603e+02 -1.00000000e+00 
400 495.07 5.99058418e+02 -1.00000000e+00 
401 495.87 6.01086556e+02 -1.00000000e+00 
402 496.67 5.99413434e+02 -1.00000000e+00 
403 497.48 5.95145338e+02 -1.00000000e+00 
404 498.28 5.90488407e+02 -1.00000000e+00 
405 499.08 5.85026562e+02 -1.00000000e+00 
406 499.88 5.78911294e+02 -1.00000000e+00 
407 500.68 5.73359601e+02 -1.00000000e+00 
408 501.48 5.70111283e+02 -1.00000000e+00 
409 502.29 5.71404202e+02 -1.00000000e+00 
410 503.09 5.75105071e+02 -1.00000000e+00 
411 503.89 5.80059057e+02 -1.00000000e+00 
412 504.69 5.86058796e+02 -1.00000000e+00 
413 505.49 5.91212602e+02 -1.00000000e+00 
414 506.29 5.93044165e+02 -1.00000000e+00 
415 507.09 5.90793926e+02 -1.00000000e+00 
416 507.90 5.87612889e+02 -1.00000000e+00 
417 508.70 5.86326608e+02 -1.00000000e+00 
418 509.50 5.86898625e+02 -1.00000000e+00 
419 510.30 5.88157317e+02 -1.00000000e+00 
420 511.10 5.87574952e+02 -1.00000000e+00 
421 511.90 5.84109898e+02 -1.00000000e+00 
422 512.70 5.78000220e+02 -1.00000000e+00 
423 513.51 5.70857829e+02 -1.00000000e+00 
424 514.31 5.65050046e+02 -1.00000000e+00 
425 515.11 5.57174784e+02 -1.00000000e+00 
426 515.91 5.43432076e+02 -1.00000000e+00 
427 516.71 5.28415332e+02 -1.00000000e+00 
428 517.51 5.19141664e+02 -1.00000000e+00 
429 518.31 5.21332151e+02 -1.00000000e+00 
430 519.11 5.33625633e+02 -1.00000000e+00 
431 519.91 5.47049288e+02 -1.00000000e+00 
432 520.71 5.57380536e+02 -1.00000000e+00 
433 521.51 5.61994536e+02 -1.00000000e+00 
434 522.32 5.63893237e+02 -1.00000000e+00 
435 523.12 5.67386773e+02 -1.00000000e+00 
436 523.92 5.71462608e+02 -1.00000000e+00 
437 524.72 5.72104036e+02 -1.00000000e+00 
438 525.52 5.65159812e+02 -1.00000000e+00 
439 526.32 5.54950599e+02 -1.00000000e+00 
440 527.12 5.51763386e+02 -1.00000000e+00 
441 527.92 5.58436654e+02 -1.00000000e+00 
442 528.72 5.71158899e+02 -1.00000000e+00 
443 529.52 5.82885797e+02 -1.00000000e+00 
444 530.32 5.88802824e+02 -1.00000000e+00 
445 531.12 5.87733503e+02 -1.00000000e+00 
446 531.92 5.82502118e+02 -1.00000000e+00 
447 532.72 5.77072895e+02 -1.00000000e+00 
448 533.52 5.75632915e+02 -1.00000000e+00 
449 534.32 5.79460770e+02 -1.00000000e+00 
450 535.12 5.84217182e+02 -1.00000000e+00 
451 535.92 5.85296378e+02 -1.00000000e+00 
452 536.72 5.83637433e+02 -1.00000000e+00 
453 537.52 5.80879613e+02 -1.00000000e+00 
454 538.32 5.77171710e+02 -1.00000000e+00 
455 539.12 5.72388974e+02 -1.00000000e+00 
456 539.92 5.67678030e+02 -1.00000000e+00 
457 540.72 5.65744829e+02 -1.00000000e+00 
458 541.52 5.67539246e+02 -1.00000000e+00 
459 542.32 5.72232060e+02 -1.00000000e+00 
460 543.12 5.77106617e+02 -1.00000000e+00 
461 543.92 5.80691905e+02 -1.00000000e+00 
