% C0 (TOA Count Rate, /ms) for 4STAR NIR spectrometer (512 channels) derived from (SEE Original files for sources) and recorded on 2017-06-22 01:22:51.
% Langley at MLO and airborne Data outside 2.0x the STD of 501 nm Langley residuals were screened out. 
% Including high Altitude rate spectra, matched to splined stratospheric AOD measured at MLO.
% Averages of c0 from multiple days including: , high- a-lt, high- a-lt, high- a-lt. See the list of files below
% 20160908_NIR_C0_refined_high_alt_low_m.dat
% 20160904_NIR_C0_refined_high_alt_low_m_fromBonanza.dat
% 20160908_NIR_C0_refined_high_alt_low_m_fromBonanza.dat
Pix Wavelength C0 C0err
511 949.79 5.39618429e+00 1.31991296e-01 
510 949.79 5.56145732e+00 1.30747435e-01 
509 951.68 5.95062002e+00 1.38440353e-01 
508 953.57 6.01071612e+00 1.31872250e-01 
507 955.46 6.48072449e+00 1.39075354e-01 
506 957.34 6.58192444e+00 1.36221807e-01 
505 959.22 7.05534713e+00 1.38046742e-01 
504 961.10 7.12922064e+00 1.30072823e-01 
503 962.98 7.56075748e+00 1.33467949e-01 
502 964.85 7.54576620e+00 1.22313022e-01 
501 966.72 8.06045103e+00 1.26637151e-01 
500 968.59 8.07666016e+00 1.13506893e-01 
499 970.45 8.48005708e+00 1.16579507e-01 
498 972.32 8.43226433e+00 1.12979025e-01 
497 974.18 8.77357483e+00 1.13241761e-01 
496 976.04 8.68673674e+00 1.01932120e-01 
495 977.89 9.03551769e+00 9.91469060e-02 
494 979.74 8.92897256e+00 9.15448767e-02 
493 981.59 9.22246202e+00 8.99263174e-02 
492 983.44 9.08967273e+00 8.77467907e-02 
491 985.29 9.35133775e+00 8.92784202e-02 
490 987.13 9.14155261e+00 8.52152241e-02 
489 988.97 9.38158830e+00 8.83553148e-02 
488 990.81 9.19096152e+00 8.03618056e-02 
487 992.65 9.37462330e+00 8.82217802e-02 
486 994.48 9.17767938e+00 7.86600532e-02 
485 996.31 9.32735761e+00 8.76836473e-02 
484 998.14 9.08918349e+00 7.98250584e-02 
483 999.97 9.22852484e+00 8.20659741e-02 
482 1001.79 8.94375006e+00 8.16404207e-02 
481 1003.62 9.02769375e+00 8.45241219e-02 
480 1005.44 8.79921087e+00 8.17559807e-02 
479 1007.25 9.04068661e+00 8.71704503e-02 
478 1009.07 8.81752523e+00 7.83242957e-02 
477 1010.88 8.98793538e+00 8.78116897e-02 
476 1012.69 8.71043396e+00 8.41666718e-02 
475 1014.50 8.83520985e+00 8.61354441e-02 
474 1016.31 8.61611462e+00 8.01377976e-02 
473 1018.11 8.75059700e+00 8.79244855e-02 
472 1019.91 8.50232379e+00 8.04292578e-02 
471 1021.71 8.65358130e+00 9.09866478e-02 
470 1023.51 8.42755000e+00 9.17583939e-02 
469 1025.30 8.60172876e+00 9.34895881e-02 
468 1027.09 8.49023183e+00 8.95039589e-02 
467 1028.88 8.63881016e+00 8.93565576e-02 
466 1030.67 8.48273818e+00 9.46641425e-02 
465 1032.46 8.66059971e+00 9.94057312e-02 
464 1034.24 8.49801604e+00 9.63043731e-02 
463 1036.02 8.69593652e+00 1.03818852e-01 
462 1037.80 8.56313038e+00 9.68866682e-02 
461 1039.58 8.76828385e+00 9.88720742e-02 
460 1041.35 8.62598101e+00 9.10158165e-02 
459 1043.12 8.77885564e+00 9.43430951e-02 
458 1044.89 8.69231383e+00 9.60252095e-02 
457 1046.66 8.91473262e+00 1.09179013e-01 
456 1048.43 8.85535812e+00 1.09942724e-01 
455 1050.19 9.08647474e+00 1.15043694e-01 
454 1051.95 8.94453557e+00 1.11678311e-01 
453 1053.71 9.20858383e+00 1.12048534e-01 
452 1055.47 9.04305522e+00 1.10169961e-01 
451 1057.23 9.18840503e+00 1.09158042e-01 
450 1058.98 9.02778403e+00 1.12822876e-01 
449 1060.73 9.19289398e+00 1.11240464e-01 
448 1062.48 8.98313745e+00 1.09058865e-01 
447 1064.23 9.11315981e+00 1.05494722e-01 
446 1065.97 8.81862990e+00 1.03612080e-01 
445 1067.71 8.87854640e+00 1.07283547e-01 
444 1069.46 8.67713992e+00 1.03775052e-01 
443 1071.19 8.80088806e+00 1.05318334e-01 
442 1072.93 8.64130465e+00 1.04734956e-01 
441 1074.67 8.73740324e+00 1.07405679e-01 
440 1076.40 8.53432783e+00 1.04652782e-01 
439 1078.13 8.56866169e+00 1.11760434e-01 
438 1079.86 8.32631683e+00 1.12654844e-01 
437 1081.58 8.41031043e+00 1.15325952e-01 
436 1083.31 8.29413223e+00 1.14090449e-01 
435 1085.03 8.48562368e+00 1.12606379e-01 
434 1086.75 8.41752466e+00 1.10788180e-01 
433 1088.47 8.58737151e+00 1.14147644e-01 
432 1090.19 8.48032919e+00 1.21561564e-01 
431 1091.90 8.60919507e+00 1.15895408e-01 
430 1093.61 8.48691463e+00 1.15065496e-01 
429 1095.33 8.71208318e+00 1.16649753e-01 
428 1097.03 8.74832853e+00 1.19037904e-01 
427 1098.74 9.01249917e+00 1.30049571e-01 
426 1100.45 9.02378527e+00 1.34090362e-01 
425 1102.15 9.32826233e+00 1.37411571e-01 
424 1103.85 9.35548274e+00 1.37743875e-01 
423 1105.55 9.63626989e+00 1.47821970e-01 
422 1107.25 9.58340200e+00 1.54176596e-01 
421 1108.94 9.77618154e+00 1.61703330e-01 
420 1110.64 9.60556380e+00 1.72800784e-01 
419 1112.33 9.66586940e+00 2.09761791e-01 
418 1114.02 9.34575176e+00 2.41694978e-01 
417 1115.70 9.33398851e+00 2.65553564e-01 
416 1117.39 9.07137394e+00 2.78110257e-01 
415 1119.07 9.05456289e+00 2.98725414e-01 
414 1120.76 8.91694864e+00 3.03988131e-01 
413 1122.44 9.01030667e+00 3.28604170e-01 
412 1124.12 8.94709778e+00 3.26872748e-01 
411 1125.79 9.14471467e+00 3.25688796e-01 
410 1127.47 9.25371393e+00 2.99531059e-01 
409 1129.14 9.52564049e+00 2.81436986e-01 
408 1130.81 9.17654959e+00 3.03542765e-01 
407 1132.48 9.11571407e+00 3.23298217e-01 
406 1134.15 8.95234871e+00 3.15817585e-01 
405 1135.81 9.22628752e+00 2.88313444e-01 
404 1137.48 9.54547469e+00 2.30551465e-01 
403 1139.14 9.77147072e+00 2.17786624e-01 
402 1140.80 9.52755705e+00 2.28165439e-01 
401 1142.46 9.51545302e+00 2.58389991e-01 
400 1144.12 9.27465598e+00 2.63719198e-01 
399 1145.77 9.33376535e+00 2.77829540e-01 
398 1147.43 9.30280781e+00 2.60352922e-01 
397 1149.08 9.44606368e+00 2.46383054e-01 
396 1150.73 9.38723183e+00 2.32959061e-01 
395 1152.38 9.60653687e+00 2.25758299e-01 
394 1154.02 9.55174605e+00 2.04891272e-01 
393 1155.67 9.74439939e+00 1.91491494e-01 
392 1157.31 9.56979211e+00 1.73007246e-01 
391 1158.95 9.64349969e+00 1.60513687e-01 
390 1160.59 9.53217856e+00 1.46143104e-01 
389 1162.23 9.66211351e+00 1.44526375e-01 
388 1163.87 9.54528618e+00 1.34749671e-01 
387 1165.50 9.60452652e+00 1.33770966e-01 
386 1167.13 9.49448013e+00 1.30751763e-01 
385 1168.76 9.60256895e+00 1.30892250e-01 
384 1170.39 9.48141766e+00 1.25855534e-01 
383 1172.02 9.47290039e+00 1.25513735e-01 
382 1173.65 9.27282079e+00 1.25412488e-01 
381 1175.27 9.26528263e+00 1.26818582e-01 
380 1176.90 9.13440355e+00 1.24241624e-01 
379 1178.52 9.11796888e+00 1.30101003e-01 
378 1180.14 8.89728800e+00 1.23474412e-01 
377 1181.75 8.89487267e+00 1.29934351e-01 
376 1183.37 8.69747257e+00 1.22455055e-01 
375 1184.99 8.72712994e+00 1.23037846e-01 
374 1186.60 8.57733249e+00 1.14075094e-01 
373 1188.21 8.52981059e+00 1.10433319e-01 
372 1189.82 8.43058459e+00 1.06861474e-01 
371 1191.43 8.61579355e+00 1.10246029e-01 
370 1193.04 8.51213169e+00 1.06189301e-01 
369 1194.64 8.50897948e+00 1.08383876e-01 
368 1196.24 8.35077858e+00 1.12180319e-01 
367 1197.85 8.41462294e+00 1.12627143e-01 
366 1199.45 8.28471279e+00 1.04781584e-01 
365 1201.05 8.36588096e+00 1.06321981e-01 
364 1202.64 8.27393977e+00 1.07684193e-01 
363 1204.24 8.28575802e+00 1.08136797e-01 
362 1205.83 8.19174703e+00 1.07044241e-01 
361 1207.43 8.20680046e+00 1.04257732e-01 
360 1209.02 8.16687520e+00 1.10928810e-01 
359 1210.61 8.29884720e+00 1.06274749e-01 
358 1212.19 8.26814938e+00 1.11751998e-01 
357 1213.78 8.40091928e+00 1.09183113e-01 
356 1215.37 8.33826224e+00 1.10827762e-01 
355 1216.95 8.37787628e+00 1.06245081e-01 
354 1218.53 8.31756242e+00 1.06096190e-01 
353 1220.11 8.38943863e+00 1.06561368e-01 
352 1221.69 8.37503115e+00 1.00857053e-01 
351 1223.27 8.42556318e+00 1.03516458e-01 
350 1224.84 8.39733600e+00 9.69014087e-02 
349 1226.42 8.44430478e+00 1.03047864e-01 
348 1227.99 8.41505019e+00 9.40372075e-02 
347 1229.56 8.55113252e+00 9.54982253e-02 
346 1231.13 8.47318554e+00 9.93062038e-02 
345 1232.70 8.54852899e+00 9.62593803e-02 
344 1234.27 8.50656446e+00 9.47820367e-02 
343 1235.84 8.52093283e+00 9.98175082e-02 
342 1237.40 8.44100158e+00 9.59750901e-02 
341 1238.96 8.43615596e+00 9.67276750e-02 
340 1240.52 8.28807577e+00 9.19154771e-02 
339 1242.08 8.40690645e+00 9.29269158e-02 
338 1243.64 8.36772410e+00 9.44617251e-02 
337 1245.20 8.40912692e+00 1.01604211e-01 
336 1246.75 8.39039898e+00 1.02642753e-01 
335 1248.31 8.45005289e+00 1.01750060e-01 
334 1249.86 8.37398179e+00 1.13393056e-01 
333 1251.41 8.38482920e+00 1.03029224e-01 
332 1252.96 8.29297606e+00 1.03965011e-01 
331 1254.51 8.31015428e+00 1.07000712e-01 
330 1256.06 8.23448531e+00 1.06396042e-01 
329 1257.61 8.19378344e+00 1.06637040e-01 
328 1259.15 8.08995883e+00 9.56678021e-02 
327 1260.69 8.03735288e+00 9.73411677e-02 
326 1262.23 7.91198619e+00 9.46836695e-02 
325 1263.77 7.90359163e+00 8.95257990e-02 
324 1265.31 7.73280605e+00 1.05190663e-01 
323 1266.85 7.78224468e+00 1.01351574e-01 
322 1268.39 7.83387884e+00 1.01183176e-01 
321 1269.92 7.95855920e+00 9.95529295e-02 
320 1271.46 8.09758154e+00 9.28961619e-02 
319 1272.99 8.13429324e+00 9.68060037e-02 
318 1274.52 8.10990429e+00 1.00766666e-01 
317 1276.05 8.18561872e+00 9.69955185e-02 
316 1277.58 8.04150899e+00 9.34889859e-02 
315 1279.10 7.90170781e+00 1.01406186e-01 
314 1280.63 7.86360136e+00 9.61764982e-02 
313 1282.15 7.86471812e+00 9.43034502e-02 
312 1283.68 7.95685418e+00 9.58170883e-02 
311 1285.20 8.12558619e+00 1.03190397e-01 
310 1286.72 8.10366281e+00 9.47197859e-02 
309 1288.24 8.13256010e+00 9.43146294e-02 
308 1289.75 8.01111349e+00 9.18417354e-02 
307 1291.27 8.03578265e+00 1.00465870e-01 
306 1292.78 8.08184878e+00 1.00182133e-01 
305 1294.30 8.10614904e+00 1.02386638e-01 
304 1295.81 8.03520266e+00 9.78222571e-02 
303 1297.32 8.04369148e+00 9.80196264e-02 
302 1298.83 8.00054137e+00 9.70946915e-02 
301 1300.34 7.96695121e+00 1.01959792e-01 
300 1301.85 7.91488043e+00 1.07079987e-01 
299 1303.35 7.88369910e+00 1.01535850e-01 
298 1304.86 7.80787389e+00 1.02728229e-01 
297 1306.36 7.79517921e+00 9.98580215e-02 
296 1307.86 7.72311624e+00 9.66758802e-02 
295 1309.36 7.63367796e+00 9.44595348e-02 
294 1310.86 7.57009522e+00 1.02309791e-01 
293 1312.36 7.50863234e+00 1.03883024e-01 
292 1313.86 7.44941680e+00 1.08140538e-01 
291 1315.36 7.45934709e+00 1.04459567e-01 
290 1316.85 7.40741793e+00 1.07380101e-01 
289 1318.34 7.37697188e+00 1.08753891e-01 
288 1319.84 7.32620780e+00 1.15311926e-01 
287 1321.33 7.33873319e+00 1.15441188e-01 
286 1322.82 7.28363307e+00 1.11584459e-01 
285 1324.30 7.29774173e+00 1.15817799e-01 
284 1325.79 7.17906062e+00 1.20227570e-01 
283 1327.28 7.07505925e+00 1.29385769e-01 
282 1328.76 6.91269223e+00 1.37626168e-01 
281 1330.25 6.85735798e+00 1.44179820e-01 
280 1331.73 6.78556506e+00 1.47975144e-01 
279 1333.21 6.79687516e+00 1.45213645e-01 
278 1334.69 6.77559360e+00 1.38635822e-01 
277 1336.17 6.72330872e+00 1.42276216e-01 
276 1337.65 6.66642539e+00 1.36838261e-01 
275 1339.12 6.58904457e+00 1.31640868e-01 
274 1340.60 6.52348852e+00 1.38857064e-01 
273 1342.07 6.47670762e+00 1.53109974e-01 
272 1343.55 6.30711095e+00 1.65866043e-01 
271 1345.02 5.96836058e+00 1.94823395e-01 
270 1346.49 5.72092168e+00 2.08877214e-01 
269 1347.96 5.44560448e+00 2.36099473e-01 
268 1349.43 5.13224984e+00 2.57590400e-01 
267 1350.89 4.81640482e+00 2.73676977e-01 
266 1352.36 4.35637744e+00 3.02835062e-01 
265 1353.82 4.05113737e+00 3.13477714e-01 
264 1355.29 3.74067648e+00 3.25167317e-01 
263 1356.75 3.52753591e+00 3.44685064e-01 
262 1358.21 3.16233468e+00 3.61829924e-01 
261 1359.67 2.85550094e+00 3.79082079e-01 
260 1361.13 2.67280650e+00 3.81900082e-01 
259 1362.59 2.63871042e+00 3.74212227e-01 
258 1364.04 2.78361774e+00 3.57329111e-01 
257 1365.50 2.75692447e+00 3.64831802e-01 
256 1366.95 2.77418224e+00 3.63712724e-01 
255 1368.41 2.67041707e+00 3.69524300e-01 
254 1369.86 2.71869024e+00 3.57173274e-01 
253 1371.31 2.88209200e+00 3.25422467e-01 
252 1372.76 2.91936811e+00 3.01160776e-01 
251 1374.21 3.00243036e+00 2.62701378e-01 
250 1375.65 2.88461264e+00 2.35428959e-01 
249 1377.10 2.60081299e+00 2.20329857e-01 
248 1378.55 2.26166042e+00 2.14326046e-01 
247 1379.99 1.90180016e+00 2.16363445e-01 
246 1381.43 1.74927735e+00 2.27536301e-01 
245 1382.87 1.80066733e+00 2.33687564e-01 
244 1384.32 1.98278173e+00 2.23890820e-01 
243 1385.75 2.22091619e+00 2.21937617e-01 
242 1387.19 2.49268420e+00 2.02946201e-01 
241 1388.63 2.58653656e+00 1.94142114e-01 
240 1390.07 2.64201300e+00 1.94140912e-01 
239 1391.50 2.61565574e+00 2.04948539e-01 
238 1392.94 2.33298946e+00 2.24552914e-01 
237 1394.37 2.41324584e+00 2.31253287e-01 
236 1395.80 2.59532261e+00 2.27876587e-01 
235 1397.23 2.52478989e+00 2.34593233e-01 
234 1398.66 2.68558383e+00 2.34624421e-01 
233 1400.09 2.81744417e+00 2.36569450e-01 
232 1401.52 2.70452055e+00 2.44920140e-01 
231 1402.94 2.89932386e+00 2.42561382e-01 
230 1404.37 2.99031679e+00 2.40820398e-01 
229 1405.79 2.90924788e+00 2.36355342e-01 
228 1407.22 3.00920836e+00 2.32835902e-01 
227 1408.64 3.16829809e+00 2.28937883e-01 
226 1410.06 3.34531689e+00 2.20922353e-01 
225 1411.48 3.35680660e+00 2.24173066e-01 
224 1412.90 3.50138601e+00 2.11073771e-01 
223 1414.32 3.57905920e+00 1.98613966e-01 
222 1415.73 3.55575411e+00 2.05458294e-01 
221 1417.15 3.63017265e+00 2.10187057e-01 
220 1418.56 3.74593719e+00 1.94653047e-01 
219 1419.98 3.69478782e+00 1.98134898e-01 
218 1421.39 3.78366804e+00 1.91912964e-01 
217 1422.80 3.89184308e+00 1.79040742e-01 
216 1424.21 3.91500298e+00 1.78549681e-01 
215 1425.62 3.91036971e+00 1.77483587e-01 
214 1427.03 3.97978306e+00 1.64149165e-01 
213 1428.44 3.82786655e+00 1.64412590e-01 
212 1429.84 3.69645953e+00 1.54956594e-01 
211 1431.25 3.65814813e+00 1.47784842e-01 
210 1432.65 3.62712717e+00 1.49902813e-01 
209 1434.06 3.66920996e+00 1.63698617e-01 
208 1435.46 3.77552350e+00 1.62859714e-01 
207 1436.86 3.79651507e+00 1.49036954e-01 
206 1438.26 3.82486232e+00 1.58087667e-01 
205 1439.66 3.85516572e+00 1.48022000e-01 
204 1441.05 3.96725742e+00 1.45881649e-01 
203 1442.45 3.88950070e+00 1.61000865e-01 
202 1443.85 3.90778724e+00 1.65817600e-01 
201 1445.24 3.98914424e+00 1.51323546e-01 
200 1446.64 4.02724663e+00 1.56512063e-01 
199 1448.03 4.01304404e+00 1.61575797e-01 
198 1449.42 4.10487112e+00 1.53640933e-01 
197 1450.81 4.10688448e+00 1.50737173e-01 
196 1452.20 4.12580935e+00 1.41114825e-01 
195 1453.59 4.26817942e+00 1.19400298e-01 
194 1454.97 4.38288831e+00 1.06039559e-01 
193 1456.36 4.37946431e+00 1.02101967e-01 
192 1457.75 4.41833035e+00 1.00333665e-01 
191 1459.13 4.37412945e+00 1.02672555e-01 
190 1460.51 4.35234896e+00 1.06233533e-01 
189 1461.90 4.23256302e+00 1.10125880e-01 
188 1463.28 4.20193243e+00 1.20454476e-01 
187 1464.66 4.12545697e+00 1.31600994e-01 
186 1466.04 4.15631374e+00 1.25888052e-01 
185 1467.41 4.04911304e+00 1.37323220e-01 
184 1468.79 4.00980552e+00 1.35094847e-01 
183 1470.17 3.95464404e+00 1.36948165e-01 
182 1471.54 4.00010069e+00 1.31885743e-01 
181 1472.92 4.04987558e+00 1.23148396e-01 
180 1474.29 4.13537661e+00 1.10422157e-01 
179 1475.66 4.12780333e+00 1.01774140e-01 
178 1477.03 4.08798409e+00 1.07467503e-01 
177 1478.40 4.04832355e+00 1.07674694e-01 
176 1479.77 4.09979773e+00 1.00616903e-01 
175 1481.14 4.08951775e+00 9.77814463e-02 
174 1482.51 4.16888778e+00 9.20836998e-02 
173 1483.87 4.11707322e+00 9.41962443e-02 
172 1485.24 4.07700380e+00 8.56731119e-02 
171 1486.60 4.03318366e+00 8.06842940e-02 
170 1487.96 4.07810037e+00 7.62849980e-02 
169 1489.32 4.04868936e+00 7.08687267e-02 
168 1490.68 4.18082126e+00 6.88712980e-02 
167 1492.04 4.16779470e+00 6.51892320e-02 
166 1493.40 4.18897390e+00 6.62474011e-02 
165 1494.76 4.14485216e+00 7.13117795e-02 
164 1496.12 4.17842611e+00 6.63939241e-02 
163 1497.47 4.14971225e+00 6.36861248e-02 
162 1498.83 4.21796163e+00 5.61130050e-02 
161 1500.18 4.06812906e+00 5.71258636e-02 
160 1501.53 4.00308164e+00 5.65305360e-02 
159 1502.89 3.88633140e+00 5.19394258e-02 
158 1504.24 3.90081072e+00 5.10845330e-02 
157 1505.59 3.92686439e+00 5.18411147e-02 
156 1506.93 4.03717534e+00 5.17420140e-02 
155 1508.28 4.06204732e+00 4.85026603e-02 
154 1509.63 4.08923785e+00 5.42473233e-02 
153 1510.97 4.03787835e+00 5.07642070e-02 
152 1512.32 4.08089717e+00 4.41219427e-02 
151 1513.66 3.99750702e+00 5.05207618e-02 
150 1515.00 4.03490178e+00 4.91449089e-02 
149 1516.34 4.00875394e+00 4.76591341e-02 
148 1517.69 4.02709993e+00 4.50305775e-02 
147 1519.02 3.97328321e+00 4.01900225e-02 
146 1520.36 3.98761654e+00 4.28207710e-02 
145 1521.70 3.93303275e+00 4.48906698e-02 
144 1523.04 3.99480454e+00 4.16187022e-02 
143 1524.37 3.94919236e+00 4.54825750e-02 
142 1525.71 3.98707978e+00 4.76780725e-02 
141 1527.04 3.91900333e+00 3.91540805e-02 
140 1528.37 3.94437488e+00 4.35797017e-02 
139 1529.70 3.87257401e+00 4.04102089e-02 
138 1531.03 3.90372983e+00 4.74169720e-02 
137 1532.36 3.84495338e+00 4.82663181e-02 
136 1533.69 3.87861395e+00 4.71185441e-02 
135 1535.02 3.80617118e+00 4.20726770e-02 
134 1536.34 3.83146993e+00 3.77817971e-02 
133 1537.67 3.76157236e+00 4.24363777e-02 
132 1538.99 3.80403384e+00 3.80461411e-02 
131 1540.31 3.75492239e+00 3.68345934e-02 
130 1541.64 3.79367582e+00 4.25027022e-02 
129 1542.96 3.77046800e+00 4.08364845e-02 
128 1544.28 3.80394920e+00 4.01824844e-02 
127 1545.60 3.73037577e+00 4.11819109e-02 
126 1546.91 3.76960389e+00 4.22439686e-02 
125 1548.23 3.68188977e+00 4.07380039e-02 
124 1549.55 3.70530709e+00 3.64923724e-02 
123 1550.86 3.62611405e+00 4.00728515e-02 
122 1552.18 3.64469496e+00 3.83480057e-02 
121 1553.49 3.58859205e+00 4.16223087e-02 
120 1554.80 3.65203579e+00 3.65811655e-02 
119 1556.11 3.58627486e+00 4.15526002e-02 
118 1557.42 3.62730861e+00 3.95996369e-02 
117 1558.73 3.56026260e+00 3.98968019e-02 
116 1560.04 3.58214124e+00 4.11808936e-02 
115 1561.34 3.49855638e+00 3.78129407e-02 
114 1562.65 3.55223028e+00 3.59730666e-02 
113 1563.95 3.47554072e+00 3.61897894e-02 
112 1565.26 3.53881565e+00 3.31236835e-02 
111 1566.56 3.41635943e+00 3.81608646e-02 
110 1567.86 3.43743547e+00 3.49026190e-02 
109 1569.16 3.33387876e+00 2.94457821e-02 
108 1570.46 3.32616560e+00 3.00788878e-02 
107 1571.76 3.22550424e+00 3.22085538e-02 
106 1573.05 3.21409917e+00 2.91473002e-02 
105 1574.35 3.10796197e+00 2.91989028e-02 
104 1575.64 3.13320001e+00 3.17080470e-02 
103 1576.94 3.09087086e+00 2.66460449e-02 
102 1578.23 3.15692242e+00 2.72477177e-02 
101 1579.52 3.12361526e+00 3.00766348e-02 
100 1580.81 3.19681899e+00 2.68779339e-02 
99 1582.10 3.13676683e+00 2.71519847e-02 
98 1583.39 3.19879580e+00 2.53816584e-02 
97 1584.68 3.12469808e+00 2.62619315e-02 
96 1585.97 3.11481531e+00 2.81330468e-02 
95 1587.25 3.01049312e+00 2.83666408e-02 
94 1588.54 3.02831395e+00 2.74668864e-02 
93 1589.82 2.96434347e+00 3.04945413e-02 
92 1591.10 3.05685266e+00 2.69343961e-02 
91 1592.38 3.02867587e+00 2.65943451e-02 
90 1593.66 3.08730706e+00 2.86037616e-02 
89 1594.94 3.01256800e+00 2.64589311e-02 
88 1596.22 3.04486163e+00 2.41064019e-02 
87 1597.50 2.94590203e+00 2.13686704e-02 
86 1598.77 2.96354620e+00 2.25430009e-02 
85 1600.05 2.86519615e+00 2.18269163e-02 
84 1601.32 2.88786570e+00 2.31994001e-02 
83 1602.59 2.80799953e+00 1.83850841e-02 
82 1603.86 2.86472519e+00 1.83951026e-02 
81 1605.13 2.75649230e+00 1.68462448e-02 
80 1606.40 2.81649367e+00 1.51775692e-02 
79 1607.67 2.71567241e+00 1.75880366e-02 
78 1608.94 2.75942938e+00 1.93158848e-02 
77 1610.20 2.69593851e+00 1.72267675e-02 
76 1611.47 2.75227888e+00 1.65643483e-02 
75 1612.73 2.67536656e+00 2.01782909e-02 
74 1614.00 2.71650378e+00 2.02789498e-02 
73 1615.26 2.63579249e+00 2.14724880e-02 
72 1616.52 2.66011190e+00 2.16600008e-02 
71 1617.78 2.55795916e+00 2.12560830e-02 
70 1619.03 2.60141444e+00 2.07630818e-02 
69 1620.29 2.54115280e+00 1.41806518e-02 
68 1621.55 2.60147556e+00 1.45939434e-02 
67 1622.80 2.53870614e+00 1.79737524e-02 
66 1624.06 2.59486477e+00 1.38678169e-02 
65 1625.31 2.49322550e+00 1.71448398e-02 
64 1626.56 2.55173167e+00 1.62117090e-02 
63 1627.81 2.45855713e+00 1.34415112e-02 
62 1629.06 2.48272920e+00 1.51957279e-02 
61 1630.31 2.39513556e+00 1.87711923e-02 
