% Radiance calibration [Resp in cts/ms / W/(m^2.sr.um)] for 4STAR NIR spectrometer (512 channels) derived from 20160330_018_NIR_ZEN.dat on 2016-09-29 16:24:09. 
% Calibration used only data with Lamps_12 and 6 ms (vis), 75 ms (nir). 
% Also requires calibrated radiance from 20160121125700HISS.txt. 
Pix  Wavelength     resp       rate        rad 
511  949.79  9.90982587e-02 1.67253204e+02 1.68775119e+03 
510  949.79  1.02125036e-01 1.72361159e+02 1.68774637e+03 
509  951.68  1.08288349e-01 1.82482159e+02 1.68515043e+03 
508  953.57  1.10734380e-01 1.86316152e+02 1.68255020e+03 
507  955.46  1.17473890e-01 1.97350673e+02 1.67995350e+03 
506  957.34  1.20028140e-01 2.01330439e+02 1.67736032e+03 
505  959.22  1.26393265e-01 2.11679730e+02 1.67477065e+03 
504  961.10  1.28992063e-01 2.15658634e+02 1.67187522e+03 
503  962.98  1.35397719e-01 2.25947042e+02 1.66876550e+03 
502  964.85  1.36734612e-01 2.27753369e+02 1.66565996e+03 
501  966.72  1.43979361e-01 2.39374123e+02 1.66255859e+03 
500  968.59  1.45906944e-01 2.42126939e+02 1.65946138e+03 
499  970.45  1.51484851e-01 2.50924183e+02 1.65643087e+03 
498  972.32  1.52818888e-01 2.52701163e+02 1.65359902e+03 
497  974.18  1.57988299e-01 2.60802494e+02 1.65077095e+03 
496  976.04  1.58035779e-01 2.60434528e+02 1.64794663e+03 
495  977.89  1.62563571e-01 2.67437565e+02 1.64512605e+03 
494  979.74  1.62333412e-01 2.66601656e+02 1.64230920e+03 
493  981.59  1.65647611e-01 2.71613477e+02 1.63970657e+03 
492  983.44  1.64950865e-01 2.70047844e+02 1.63714112e+03 
491  985.29  1.68028449e-01 2.74655782e+02 1.63457905e+03 
490  987.13  1.66491534e-01 2.71717568e+02 1.63202033e+03 
489  988.97  1.69443694e-01 2.76102561e+02 1.62946496e+03 
488  990.81  1.67719966e-01 2.72878175e+02 1.62698682e+03 
487  992.65  1.69654405e-01 2.75621430e+02 1.62460521e+03 
486  994.48  1.68001653e-01 2.72536766e+02 1.62222669e+03 
485  996.31  1.70104821e-01 2.75544510e+02 1.61985126e+03 
484  998.14  1.67762987e-01 2.71353093e+02 1.61747891e+03 
483  999.97  1.70135955e-01 2.74788217e+02 1.61510961e+03 
482  1001.79  1.68097001e-01 2.71120543e+02 1.61288150e+03 
481  1003.62  1.69422249e-01 2.72881403e+02 1.61065860e+03 
480  1005.44  1.67449234e-01 2.69331804e+02 1.60843855e+03 
479  1007.25  1.69725808e-01 2.72617216e+02 1.60622135e+03 
478  1009.07  1.66957532e-01 2.67801045e+02 1.60400697e+03 
477  1010.88  1.68895124e-01 2.70516245e+02 1.60168180e+03 
476  1012.69  1.66364183e-01 2.66056174e+02 1.59923951e+03 
475  1014.50  1.67520760e-01 2.67497203e+02 1.59680032e+03 
474  1016.31  1.65459226e-01 2.63802271e+02 1.59436422e+03 
473  1018.11  1.67213737e-01 2.66192764e+02 1.59193120e+03 
472  1019.91  1.64767301e-01 2.61897828e+02 1.58950124e+03 
471  1021.71  1.66986685e-01 2.64995738e+02 1.58692735e+03 
470  1023.51  1.64182844e-01 2.60122919e+02 1.58434897e+03 
469  1025.30  1.66459359e-01 2.63301055e+02 1.58177381e+03 
468  1027.09  1.66147064e-01 2.62379755e+02 1.57920187e+03 
467  1028.88  1.68629697e-01 2.65867168e+02 1.57663314e+03 
466  1030.67  1.67279135e-01 2.63293073e+02 1.57397438e+03 
465  1032.46  1.70054221e-01 2.67183041e+02 1.57116382e+03 
464  1034.24  1.69198473e-01 2.65363567e+02 1.56835675e+03 
463  1036.02  1.71898477e-01 2.69116199e+02 1.56555313e+03 
462  1037.80  1.71076652e-01 2.67350547e+02 1.56275298e+03 
461  1039.58  1.74464444e-01 2.72156902e+02 1.55995626e+03 
460  1041.35  1.73530000e-01 2.70254355e+02 1.55739270e+03 
459  1043.12  1.76734327e-01 2.74804940e+02 1.55490416e+03 
458  1044.89  1.77211385e-01 2.75106259e+02 1.55241865e+03 
457  1046.66  1.80780401e-01 2.80198081e+02 1.54993617e+03 
456  1048.43  1.80731088e-01 2.79673533e+02 1.54745670e+03 
455  1050.19  1.84595282e-01 2.85178436e+02 1.54488475e+03 
454  1051.95  1.84408560e-01 2.84272380e+02 1.54153571e+03 
453  1053.71  1.88644920e-01 2.90171863e+02 1.53819071e+03 
452  1055.47  1.88346005e-01 2.89082816e+02 1.53484974e+03 
451  1057.23  1.91115542e-01 2.92695895e+02 1.53151278e+03 
450  1058.98  1.90757007e-01 2.91511008e+02 1.52817982e+03 
449  1060.73  1.93290460e-01 2.94747031e+02 1.52489177e+03 
448  1062.48  1.91004762e-01 2.90645206e+02 1.52166471e+03 
447  1064.23  1.93421872e-01 2.93699798e+02 1.51844150e+03 
446  1065.97  1.91324248e-01 2.89898732e+02 1.51522212e+03 
445  1067.71  1.91942715e-01 2.90218641e+02 1.51200654e+03 
444  1069.46  1.89159915e-01 2.85403491e+02 1.50879477e+03 
443  1071.19  1.90325812e-01 2.86568847e+02 1.50567515e+03 
442  1072.93  1.87367932e-01 2.81538953e+02 1.50259946e+03 
441  1074.67  1.88268959e-01 2.82314457e+02 1.49952737e+03 
440  1076.40  1.86069111e-01 2.78444775e+02 1.49645889e+03 
439  1078.13  1.87130242e-01 2.79459177e+02 1.49339398e+03 
438  1079.86  1.85112792e-01 2.75879638e+02 1.49033265e+03 
437  1081.58  1.85924485e-01 2.76437769e+02 1.48682821e+03 
436  1083.31  1.85911975e-01 2.75760936e+02 1.48328765e+03 
435  1085.03  1.88733099e-01 2.79278028e+02 1.47975119e+03 
434  1086.75  1.88229601e-01 2.77868079e+02 1.47621881e+03 
433  1088.47  1.91159416e-01 2.81518656e+02 1.47269050e+03 
432  1090.19  1.91688571e-01 2.81623202e+02 1.46917054e+03 
431  1091.90  1.95627003e-01 2.86728496e+02 1.46568976e+03 
430  1093.61  1.95938566e-01 2.86503912e+02 1.46221297e+03 
429  1095.33  2.00804663e-01 2.92921821e+02 1.45874013e+03 
428  1097.03  2.01726368e-01 2.93566585e+02 1.45527125e+03 
427  1098.74  2.06111192e-01 2.99233529e+02 1.45180631e+03 
426  1100.45  2.07723036e-01 3.00783861e+02 1.44800436e+03 
425  1102.15  2.13550091e-01 3.08204983e+02 1.44324445e+03 
424  1103.85  2.15100784e-01 3.09420307e+02 1.43848991e+03 
423  1105.55  2.20314011e-01 3.15873167e+02 1.43374071e+03 
422  1107.25  2.21541245e-01 3.16581739e+02 1.42899684e+03 
421  1108.94  2.25742207e-01 3.21515208e+02 1.42425829e+03 
420  1110.64  2.26959131e-01 3.21842805e+02 1.41806502e+03 
419  1112.33  2.30985957e-01 3.25562710e+02 1.40944806e+03 
418  1114.02  2.30420669e-01 3.22782646e+02 1.40084068e+03 
417  1115.70  2.34046648e-01 3.25849769e+02 1.39224284e+03 
416  1117.39  2.33221787e-01 3.22698375e+02 1.38365450e+03 
415  1119.07  2.35429433e-01 3.23733278e+02 1.37507564e+03 
414  1120.76  2.36365395e-01 3.23273917e+02 1.36768717e+03 
413  1122.44  2.39446122e-01 3.26065823e+02 1.36175028e+03 
412  1124.12  2.39899990e-01 3.25261178e+02 1.35581989e+03 
411  1125.79  2.44266429e-01 3.29734272e+02 1.34989599e+03 
410  1127.47  2.46033993e-01 3.30664406e+02 1.34397854e+03 
409  1129.14  2.49095627e-01 3.33306768e+02 1.33806752e+03 
408  1130.81  2.45794298e-01 3.27637116e+02 1.33297281e+03 
407  1132.48  2.46096378e-01 3.26998279e+02 1.32874072e+03 
406  1134.15  2.43503045e-01 3.22522998e+02 1.32451320e+03 
405  1135.81  2.45879839e-01 3.24632751e+02 1.32029024e+03 
404  1137.48  2.49289522e-01 3.28082912e+02 1.31607181e+03 
403  1139.14  2.51927637e-01 3.30493260e+02 1.31185790e+03 
402  1140.80  2.49111890e-01 3.25584095e+02 1.30697935e+03 
401  1142.46  2.49177277e-01 3.24276663e+02 1.30138938e+03 
400  1144.12  2.45551018e-01 3.18186327e+02 1.29580537e+03 
399  1145.77  2.46835412e-01 3.18473782e+02 1.29022728e+03 
398  1147.43  2.46064730e-01 3.16108310e+02 1.28465510e+03 
397  1149.08  2.46976748e-01 3.15905195e+02 1.27908881e+03 
396  1150.73  2.45554458e-01 3.12871698e+02 1.27414383e+03 
395  1152.38  2.47416778e-01 3.14215266e+02 1.26998366e+03 
394  1154.02  2.45785543e-01 3.11122187e+02 1.26582786e+03 
393  1155.67  2.49397919e-01 3.14659470e+02 1.26167640e+03 
392  1157.31  2.48355652e-01 3.12314504e+02 1.25752928e+03 
391  1158.95  2.49429534e-01 3.12631604e+02 1.25338647e+03 
390  1160.59  2.48288066e-01 3.10225613e+02 1.24945841e+03 
389  1162.23  2.49552583e-01 3.10919388e+02 1.24590731e+03 
388  1163.87  2.47141218e-01 3.07038335e+02 1.24235988e+03 
387  1165.50  2.48006473e-01 3.07234414e+02 1.23881611e+03 
386  1167.13  2.45796911e-01 3.03627021e+02 1.23527598e+03 
385  1168.76  2.45736860e-01 3.02683795e+02 1.23173949e+03 
384  1170.39  2.43693334e-01 2.99223462e+02 1.22786888e+03 
383  1172.02  2.43382562e-01 2.97642974e+02 1.22294289e+03 
382  1173.65  2.41358753e-01 2.93980249e+02 1.21802191e+03 
381  1175.27  2.41615479e-01 2.93105172e+02 1.21310594e+03 
380  1176.90  2.39379672e-01 2.89217310e+02 1.20819495e+03 
379  1178.52  2.38337466e-01 2.86788833e+02 1.20328892e+03 
378  1180.14  2.35147341e-01 2.81770396e+02 1.19827167e+03 
377  1181.75  2.34254710e-01 2.79230525e+02 1.19199535e+03 
376  1183.37  2.30885737e-01 2.73767069e+02 1.18572534e+03 
375  1184.99  2.30313431e-01 2.71645850e+02 1.17946161e+03 
374  1186.60  2.27401416e-01 2.66788282e+02 1.17320414e+03 
373  1188.21  2.25650190e-01 2.63323146e+02 1.16695291e+03 
372  1189.82  2.23216468e-01 2.59089116e+02 1.16070789e+03 
371  1191.43  2.25784870e-01 2.60929665e+02 1.15565611e+03 
370  1193.04  2.24341137e-01 2.58162512e+02 1.15075869e+03 
369  1194.64  2.25358370e-01 2.58230518e+02 1.14586611e+03 
368  1196.24  2.24434558e-01 2.56074970e+02 1.14097834e+03 
367  1197.85  2.25771750e-01 2.56498241e+02 1.13609538e+03 
366  1199.45  2.25900727e-01 2.55542789e+02 1.13121721e+03 
365  1201.05  2.26685914e-01 2.55652574e+02 1.12778324e+03 
364  1202.64  2.25147606e-01 2.53316748e+02 1.12511411e+03 
363  1204.24  2.26371510e-01 2.54090152e+02 1.12244757e+03 
362  1205.83  2.25350544e-01 2.52343851e+02 1.11978363e+03 
361  1207.43  2.26459596e-01 2.52983058e+02 1.11712227e+03 
360  1209.02  2.26785378e-01 2.52744022e+02 1.11446348e+03 
359  1210.61  2.27961454e-01 2.53601314e+02 1.11247454e+03 
358  1212.19  2.27647226e-01 2.53045676e+02 1.11156934e+03 
357  1213.78  2.30023705e-01 2.55479279e+02 1.11066501e+03 
356  1215.37  2.30085378e-01 2.55339903e+02 1.10976154e+03 
355  1216.95  2.31233055e-01 2.56404839e+02 1.10885893e+03 
354  1218.53  2.32439840e-01 2.57533392e+02 1.10795719e+03 
353  1220.11  2.34490350e-01 2.59589146e+02 1.10703552e+03 
352  1221.69  2.34343282e-01 2.59146595e+02 1.10584179e+03 
351  1223.27  2.36012131e-01 2.60710610e+02 1.10464920e+03 
350  1224.84  2.37315454e-01 2.61867571e+02 1.10345772e+03 
349  1226.42  2.38834780e-01 2.63259786e+02 1.10226738e+03 
348  1227.99  2.39228607e-01 2.63409391e+02 1.10107815e+03 
347  1229.56  2.40746363e-01 2.64794524e+02 1.09989003e+03 
346  1231.13  2.40108866e-01 2.63725323e+02 1.09835729e+03 
345  1232.70  2.41619120e-01 2.64981986e+02 1.09669296e+03 
344  1234.27  2.42108390e-01 2.65115991e+02 1.09503017e+03 
343  1235.84  2.42355483e-01 2.64983956e+02 1.09336893e+03 
342  1237.40  2.41899830e-01 2.64084278e+02 1.09170923e+03 
341  1238.96  2.42318331e-01 2.64139355e+02 1.09005107e+03 
340  1240.52  2.40745467e-01 2.61999427e+02 1.08828395e+03 
339  1242.08  2.43324930e-01 2.64323795e+02 1.08629969e+03 
338  1243.64  2.43879337e-01 2.64442572e+02 1.08431725e+03 
337  1245.20  2.43935791e-01 2.64020641e+02 1.08233663e+03 
336  1246.75  2.43886076e-01 2.63484228e+02 1.08035782e+03 
335  1248.31  2.45040402e-01 2.64246867e+02 1.07838081e+03 
334  1249.86  2.45092645e-01 2.63819096e+02 1.07640560e+03 
333  1251.41  2.46546910e-01 2.64834516e+02 1.07417495e+03 
332  1252.96  2.46821901e-01 2.64573635e+02 1.07192122e+03 
331  1254.51  2.47101857e-01 2.64317327e+02 1.06966953e+03 
330  1256.06  2.47101586e-01 2.63761144e+02 1.06741987e+03 
329  1257.61  2.47889902e-01 2.64045441e+02 1.06517223e+03 
328  1259.15  2.48931298e-01 2.64595702e+02 1.06292662e+03 
327  1260.69  2.50410832e-01 2.65596977e+02 1.06064492e+03 
326  1262.23  2.50418752e-01 2.65022803e+02 1.05831852e+03 
325  1263.77  2.50263030e-01 2.64276310e+02 1.05599420e+03 
324  1265.31  2.50802332e-01 2.64263384e+02 1.05367195e+03 
323  1266.85  2.51680134e-01 2.64604353e+02 1.05135177e+03 
322  1268.39  2.51800484e-01 2.64147177e+02 1.04903364e+03 
321  1269.92  2.52423893e-01 2.64216520e+02 1.04671755e+03 
320  1271.46  2.52512542e-01 2.63690437e+02 1.04426669e+03 
319  1272.99  2.52506937e-01 2.63064420e+02 1.04181067e+03 
318  1274.52  2.52323951e-01 2.62254615e+02 1.03935680e+03 
317  1276.05  2.53462312e-01 2.62816361e+02 1.03690509e+03 
316  1277.58  2.53202597e-01 2.61926825e+02 1.03445552e+03 
315  1279.10  2.54278941e-01 2.62417924e+02 1.03200809e+03 
314  1280.63  2.54594489e-01 2.62092379e+02 1.02945032e+03 
313  1282.15  2.53797131e-01 2.60582227e+02 1.02673433e+03 
312  1283.68  2.53607091e-01 2.59698910e+02 1.02402070e+03 
311  1285.20  2.54072707e-01 2.59486846e+02 1.02130941e+03 
310  1286.72  2.53847983e-01 2.58569673e+02 1.01860046e+03 
309  1288.24  2.54061377e-01 2.58099391e+02 1.01589385e+03 
308  1289.75  2.51985394e-01 2.55308974e+02 1.01318957e+03 
307  1291.27  2.52391442e-01 2.54915380e+02 1.01000010e+03 
306  1292.78  2.53909080e-01 2.55615021e+02 1.00671871e+03 
305  1294.30  2.53987336e-01 2.54861085e+02 1.00344013e+03 
304  1295.81  2.53181516e-01 2.53223125e+02 1.00016434e+03 
303  1297.32  2.53269337e-01 2.52482011e+02 9.96891348e+02 
302  1298.83  2.53027496e-01 2.51413467e+02 9.93621134e+02 
301  1300.34  2.52178687e-01 2.49731950e+02 9.90297603e+02 
300  1301.85  2.52395892e-01 2.49060287e+02 9.86784234e+02 
299  1303.35  2.51486088e-01 2.47279690e+02 9.83273833e+02 
298  1304.86  2.50301039e-01 2.45236546e+02 9.79766391e+02 
297  1306.36  2.49796896e-01 2.43867192e+02 9.76261900e+02 
296  1307.86  2.50308709e-01 2.43490388e+02 9.72760352e+02 
295  1309.36  2.49352673e-01 2.41688006e+02 9.69261739e+02 
294  1310.86  2.48883757e-01 2.40228873e+02 9.65225198e+02 
293  1312.36  2.48261365e-01 2.38528137e+02 9.60794432e+02 
292  1313.86  2.47455265e-01 2.36658138e+02 9.56367358e+02 
291  1315.36  2.47033007e-01 2.35161581e+02 9.51943966e+02 
290  1316.85  2.46428151e-01 2.33496648e+02 9.47524247e+02 
289  1318.34  2.45273300e-01 2.31319258e+02 9.43108189e+02 
288  1319.84  2.44720054e-01 2.29717683e+02 9.38695784e+02 
287  1321.33  2.43683565e-01 2.27545279e+02 9.33773598e+02 
286  1322.82  2.42233014e-01 2.24984072e+02 9.28791943e+02 
285  1324.30  2.42002956e-01 2.23565812e+02 9.23814386e+02 
284  1325.79  2.41497725e-01 2.21897991e+02 9.18840915e+02 
283  1327.28  2.40118258e-01 2.19437238e+02 9.13871520e+02 
282  1328.76  2.39343015e-01 2.17540348e+02 9.08906190e+02 
281  1330.25  2.38343016e-01 2.15383681e+02 9.03671039e+02 
280  1331.73  2.37546783e-01 2.13095693e+02 8.97068316e+02 
279  1333.21  2.36974979e-01 2.11019338e+02 8.90470966e+02 
278  1334.69  2.36213954e-01 2.08784548e+02 8.83878976e+02 
277  1336.17  2.35022217e-01 2.06183189e+02 8.77292331e+02 
276  1337.65  2.34411943e-01 2.04105061e+02 8.70711018e+02 
275  1339.12  2.32377963e-01 2.00805936e+02 8.64135024e+02 
274  1340.60  2.33682972e-01 1.99889385e+02 8.55387037e+02 
273  1342.07  2.33972519e-01 1.97346242e+02 8.43459066e+02 
272  1343.55  2.33049651e-01 1.93790266e+02 8.31540686e+02 
271  1345.02  2.28931297e-01 1.87639388e+02 8.19631875e+02 
270  1346.49  2.26674285e-01 1.83092211e+02 8.07732608e+02 
269  1347.96  2.23262209e-01 1.77681635e+02 7.95842863e+02 
268  1349.43  2.19333229e-01 1.71949052e+02 7.83962617e+02 
267  1350.89  2.15537708e-01 1.66112287e+02 7.70687822e+02 
266  1352.36  2.09007547e-01 1.58118248e+02 7.56519324e+02 
265  1353.82  2.04415313e-01 1.51750180e+02 7.42362093e+02 
264  1355.29  2.01349952e-01 1.46626277e+02 7.28216101e+02 
263  1356.75  1.99848963e-01 1.42708412e+02 7.14081323e+02 
262  1358.21  1.94666900e-01 1.36258602e+02 6.99957733e+02 
261  1359.67  1.91331166e-01 1.31223582e+02 6.85845306e+02 
260  1361.13  1.88438543e-01 1.27857073e+02 6.78508073e+02 
259  1362.59  1.87199886e-01 1.26014883e+02 6.73156837e+02 
258  1364.04  1.92255004e-01 1.28389778e+02 6.67809811e+02 
257  1365.50  1.91702507e-01 1.26996582e+02 6.62466987e+02 
256  1366.95  1.92454153e-01 1.26467081e+02 6.57128356e+02 
255  1368.41  1.89636024e-01 1.23603605e+02 6.51793907e+02 
254  1369.86  1.88291476e-01 1.21723592e+02 6.46463631e+02 
253  1371.31  1.87516453e-01 1.20379362e+02 6.41966933e+02 
252  1372.76  1.83874701e-01 1.17231909e+02 6.37564107e+02 
251  1374.21  1.79045773e-01 1.13365465e+02 6.33164711e+02 
250  1375.65  1.69454208e-01 1.06547509e+02 6.28768740e+02 
249  1377.10  1.55970687e-01 9.73843823e+01 6.24376185e+02 
248  1378.55  1.42739781e-01 8.84968141e+01 6.19987039e+02 
247  1379.99  1.29992705e-01 8.00236775e+01 6.15601297e+02 
246  1381.43  1.25275058e-01 7.61377652e+01 6.07764757e+02 
245  1382.87  1.25917628e-01 7.55391752e+01 5.99909451e+02 
244  1384.32  1.30201588e-01 7.70871799e+01 5.92060212e+02 
243  1385.75  1.36369841e-01 7.96695830e+01 5.84217029e+02 
242  1387.19  1.43954061e-01 8.29722256e+01 5.76379889e+02 
241  1388.63  1.46146007e-01 8.30911340e+01 5.68548780e+02 
240  1390.07  1.48822642e-01 8.34429080e+01 5.60686913e+02 
239  1391.50  1.50235066e-01 8.29421909e+01 5.52082769e+02 
238  1392.94  1.46301827e-01 7.95128812e+01 5.43485224e+02 
237  1394.37  1.49538134e-01 7.99870904e+01 5.34894266e+02 
236  1395.80  1.54491320e-01 8.13103089e+01 5.26309884e+02 
235  1397.23  1.53569115e-01 7.95076550e+01 5.17732065e+02 
234  1398.66  1.59554580e-01 8.12389374e+01 5.09160798e+02 
233  1400.09  1.63623069e-01 8.19177800e+01 5.00649330e+02 
232  1401.52  1.62292435e-01 7.99986650e+01 4.92929107e+02 
231  1402.94  1.67188010e-01 8.11220910e+01 4.85214764e+02 
230  1404.37  1.69667716e-01 8.10174015e+01 4.77506289e+02 
229  1405.79  1.67000597e-01 7.84574941e+01 4.69803673e+02 
228  1407.22  1.70153887e-01 7.86292862e+01 4.62106907e+02 
227  1408.64  1.73523501e-01 7.88518519e+01 4.54415980e+02 
226  1410.06  1.76794967e-01 7.90007307e+01 4.46849433e+02 
225  1411.48  1.76261839e-01 7.78965026e+01 4.41936287e+02 
224  1412.90  1.79398533e-01 7.84019771e+01 4.37026859e+02 
223  1414.32  1.79346708e-01 7.74995045e+01 4.32121143e+02 
222  1415.73  1.80281150e-01 7.70195566e+01 4.27219133e+02 
221  1417.15  1.81962106e-01 7.68463868e+01 4.22320824e+02 
220  1418.56  1.84698180e-01 7.70978616e+01 4.17426211e+02 
219  1419.98  1.85125046e-01 7.63706140e+01 4.12535287e+02 
218  1421.39  1.87615911e-01 7.68562083e+01 4.09646538e+02 
217  1422.80  1.88109994e-01 7.65214915e+01 4.06791208e+02 
216  1424.21  1.89473494e-01 7.65355492e+01 4.03938025e+02 
215  1425.62  1.89307984e-01 7.59289691e+01 4.01086988e+02 
214  1427.03  1.91201155e-01 7.61435832e+01 3.98238093e+02 
213  1428.44  1.90089893e-01 7.51598967e+01 3.95391337e+02 
212  1429.84  1.90699572e-01 7.48584910e+01 3.92546717e+02 
211  1431.25  1.88699765e-01 7.37736357e+01 3.90957752e+02 
210  1432.65  1.89257707e-01 7.37209950e+01 3.89527044e+02 
209  1434.06  1.90281075e-01 7.38475921e+01 3.88097407e+02 
208  1435.46  1.91684775e-01 7.41185299e+01 3.86668842e+02 
207  1436.86  1.91609424e-01 7.38158722e+01 3.85241346e+02 
206  1438.26  1.92923166e-01 7.40467889e+01 3.83814917e+02 
205  1439.66  1.91792653e-01 7.33395076e+01 3.82389556e+02 
204  1441.05  1.93731867e-01 7.38516979e+01 3.81205732e+02 
203  1442.45  1.92073849e-01 7.30074519e+01 3.80100946e+02 
202  1443.85  1.92855718e-01 7.30917358e+01 3.78996986e+02 
201  1445.24  1.92562505e-01 7.27681863e+01 3.77893850e+02 
200  1446.64  1.93795216e-01 7.30203975e+01 3.76791538e+02 
199  1448.03  1.92713828e-01 7.24006673e+01 3.75690048e+02 
198  1449.42  1.95699357e-01 7.33069010e+01 3.74589380e+02 
197  1450.81  1.94860148e-01 7.28407052e+01 3.73810171e+02 
196  1452.20  1.95613050e-01 7.30147916e+01 3.73261353e+02 
195  1453.59  1.95767863e-01 7.29652166e+01 3.72712943e+02 
194  1454.97  1.97690165e-01 7.35733488e+01 3.72164942e+02 
193  1456.36  1.96494679e-01 7.30208318e+01 3.71617350e+02 
192  1457.75  1.97492200e-01 7.32834636e+01 3.71070166e+02 
191  1459.13  1.95539829e-01 7.24520800e+01 3.70523389e+02 
190  1460.51  1.95970517e-01 7.25413449e+01 3.70164584e+02 
189  1461.90  1.93813403e-01 7.17348210e+01 3.70123118e+02 
188  1463.28  1.94975504e-01 7.21568628e+01 3.70081684e+02 
187  1464.66  1.93307547e-01 7.15315788e+01 3.70040280e+02 
186  1466.04  1.94886312e-01 7.21077225e+01 3.69998907e+02 
185  1467.41  1.92893428e-01 7.13623829e+01 3.69957565e+02 
184  1468.79  1.93018102e-01 7.14005333e+01 3.69916254e+02 
