% C0 (TOA Count Rate, /ms) for 4STAR VIS spectrometer (1044 channels) derived from 20160115starsun_wFORJcorr_meanc0.mat and recorded on 2016-02-01 22:26:50.
% Data outside 2.0x the STD of 501 nm Langley residuals were screened out.
Pix Wavelength C0 C0err
0 173.18 -1.00000000e+00 -1.00000000e+00 
1 173.97 6.29987559e+03 1.88996268e+02 
2 174.77 5.46219357e+03 1.63865807e+02 
3 175.56 5.00752813e+03 1.50225844e+02 
4 176.36 3.45804923e+05 1.03741477e+04 
5 177.15 4.23161722e+05 1.26948517e+04 
6 177.94 4.84166262e+05 1.45249879e+04 
7 178.74 5.58034427e+05 1.67410328e+04 
8 179.53 6.64217921e+05 1.99265376e+04 
9 180.33 7.64562200e+05 2.29368660e+04 
10 181.12 9.03862461e+05 2.71158738e+04 
11 181.92 1.06495714e+06 3.19487142e+04 
12 182.71 1.25389629e+06 3.76168887e+04 
13 183.51 1.51323168e+06 4.53969505e+04 
14 184.30 1.78909083e+06 5.36727249e+04 
15 185.10 2.17080726e+06 6.51242179e+04 
16 185.89 2.63584875e+06 7.90754625e+04 
17 186.69 3.17716279e+06 9.53148836e+04 
18 187.49 3.96947643e+06 1.19084293e+05 
19 188.28 4.87914833e+06 1.46374450e+05 
20 189.08 6.09210478e+06 1.82763143e+05 
21 189.88 7.64843414e+06 2.29453024e+05 
22 190.67 9.26285409e+06 2.77885623e+05 
23 191.47 1.18393087e+07 3.55179261e+05 
24 192.27 1.53576520e+07 4.60729559e+05 
25 193.07 1.99009639e+07 5.97028916e+05 
26 193.86 2.53126859e+07 7.59380576e+05 
27 194.66 3.43017717e+07 1.02905315e+06 
28 195.46 4.55495824e+07 1.36648747e+06 
29 196.26 6.19710187e+07 1.85913056e+06 
30 197.05 7.96760504e+07 2.39028151e+06 
31 197.85 1.08459697e+08 3.25379091e+06 
32 198.65 1.46979956e+08 4.40939869e+06 
33 199.45 1.74470115e+08 5.23410345e+06 
34 200.25 1.80375429e+08 5.41126288e+06 
35 201.05 1.55731772e+08 4.67195315e+06 
36 201.85 1.60634037e+08 4.81902110e+06 
37 202.64 1.92909885e+08 5.78729656e+06 
38 203.44 2.15982686e+08 6.47948057e+06 
39 204.24 1.58160252e+08 4.74480756e+06 
40 205.04 1.10094866e+08 3.30284597e+06 
41 205.84 7.33418607e+07 2.20025582e+06 
42 206.64 7.83169989e+07 2.34950997e+06 
43 207.44 5.12060677e+07 1.53618203e+06 
44 208.24 3.44061005e+07 1.03218301e+06 
45 209.04 2.32326005e+07 6.96978016e+05 
46 209.84 1.52418051e+07 4.57254152e+05 
47 210.64 1.03099594e+07 3.09298781e+05 
48 211.44 6.89294249e+06 2.06788275e+05 
49 212.24 4.57393651e+06 1.37218095e+05 
50 213.05 3.06728260e+06 9.20184779e+04 
51 213.85 2.03953090e+06 6.11859271e+04 
52 214.65 1.36297445e+06 4.08892336e+04 
53 215.45 9.09901164e+05 2.72970349e+04 
54 216.25 6.07925316e+05 1.82377595e+04 
55 217.05 4.07952520e+05 1.22385756e+04 
56 217.85 2.73358417e+05 8.20075252e+03 
57 218.65 1.83975950e+05 5.51927850e+03 
58 219.46 1.21849070e+05 3.65547211e+03 
59 220.26 8.11584250e+04 2.43475275e+03 
60 221.06 5.39852234e+04 1.61955670e+03 
61 221.86 3.64719188e+04 1.09415757e+03 
62 222.66 2.43405876e+04 7.30217628e+02 
63 223.47 1.65581270e+04 4.96743810e+02 
64 224.27 1.09680803e+04 3.29042408e+02 
65 225.07 7.29329494e+03 2.18798848e+02 
66 225.87 4.87468251e+03 1.46240475e+02 
67 226.68 3.29211405e+03 9.87634214e+01 
68 227.48 2.23423532e+03 6.70270596e+01 
69 228.28 1.54140344e+03 4.62421033e+01 
70 229.09 1.15229471e+03 3.45688414e+01 
71 229.89 9.64170632e+02 2.89251190e+01 
72 230.69 9.53060635e+02 2.85918191e+01 
73 231.49 1.14494590e+03 3.43483771e+01 
74 232.30 1.56451339e+03 4.69354016e+01 
75 233.10 2.33696414e+03 7.01089243e+01 
76 233.91 3.67199699e+03 1.10159910e+02 
77 234.71 5.88116259e+03 1.76434878e+02 
78 235.51 9.32333068e+03 2.79699920e+02 
79 236.32 1.49487324e+04 4.48461972e+02 
80 237.12 2.43819010e+04 7.31457030e+02 
81 237.92 3.87567195e+04 1.16270158e+03 
82 238.73 6.38090126e+04 1.91427038e+03 
83 239.53 1.04887978e+05 3.14663934e+03 
84 240.34 1.64908064e+05 4.94724191e+03 
85 241.14 2.65391321e+05 7.96173964e+03 
86 241.94 4.12381575e+05 1.23714473e+04 
87 242.75 6.49369308e+05 1.94810792e+04 
88 243.55 9.76410896e+05 2.92923269e+04 
89 244.36 1.43967272e+06 4.31901815e+04 
90 245.16 2.11003562e+06 6.33010687e+04 
91 245.97 2.99365605e+06 8.98096815e+04 
92 246.77 4.10535428e+06 1.23160628e+05 
93 247.58 5.61466389e+06 1.68439917e+05 
94 248.38 7.60846107e+06 2.28253832e+05 
95 249.19 1.00928669e+07 3.02786007e+05 
96 249.99 1.21278380e+07 3.63835140e+05 
97 250.80 1.44052477e+07 4.32157431e+05 
98 251.60 1.68297254e+07 5.04891763e+05 
99 252.41 1.92733679e+07 5.78201036e+05 
100 253.21 2.08295782e+07 6.24887347e+05 
101 254.02 2.21441411e+07 6.64324234e+05 
102 254.83 2.36011373e+07 7.08034118e+05 
103 255.63 2.33165234e+07 6.99495703e+05 
104 256.44 2.13853851e+07 6.41561552e+05 
105 257.24 1.94572852e+07 5.83718557e+05 
106 258.05 1.75210520e+07 5.25631560e+05 
107 258.85 1.50290105e+07 4.50870315e+05 
108 259.66 1.23012945e+07 3.69038835e+05 
109 260.46 9.51187539e+06 2.85356262e+05 
110 261.27 7.13409833e+06 2.14022950e+05 
111 262.08 5.26833477e+06 1.58050043e+05 
112 262.88 3.74320333e+06 1.12296100e+05 
113 263.69 2.64056776e+06 7.92170328e+04 
114 264.50 1.84520689e+06 5.53562067e+04 
115 265.30 1.25739941e+06 3.77219823e+04 
116 266.11 8.13987700e+05 2.44196310e+04 
117 266.91 5.19920733e+05 1.55976220e+04 
118 267.72 3.19680056e+05 9.59040169e+03 
119 268.53 1.93910619e+05 5.81731856e+03 
120 269.33 1.17367699e+05 3.52103097e+03 
121 270.14 7.42057194e+04 2.22617158e+03 
122 270.95 4.56704767e+04 1.37011430e+03 
123 271.75 2.78839338e+04 8.36518015e+02 
124 272.56 1.67621225e+04 5.02863675e+02 
125 273.37 9.78604526e+03 2.93581358e+02 
126 274.17 5.62551388e+03 1.68765416e+02 
127 274.98 3.35663322e+03 1.00698997e+02 
128 275.79 2.09487232e+03 6.28461695e+01 
129 276.59 1.31158368e+03 3.93475104e+01 
130 277.40 8.25941225e+02 2.47782367e+01 
131 278.21 5.18818461e+02 1.55645538e+01 
132 279.01 3.26365304e+02 9.79095911e+00 
133 279.82 2.07988924e+02 6.23966771e+00 
134 280.63 1.35568966e+02 4.06706899e+00 
135 281.44 8.65451289e+01 2.59635387e+00 
136 282.24 5.88789796e+01 1.76636939e+00 
137 283.05 4.08504806e+01 1.22551442e+00 
138 283.86 2.90510771e+01 8.71532312e-01 
139 284.66 2.06400719e+01 6.19202157e-01 
140 285.47 1.50678083e+01 4.52034250e-01 
141 286.28 1.13502280e+01 3.40506840e-01 
142 287.09 8.72577914e+00 2.61773374e-01 
143 287.89 6.67523230e+00 2.00256969e-01 
144 288.70 5.04137359e+00 1.51241208e-01 
145 289.51 4.13321000e+00 1.23996300e-01 
146 290.32 3.35496088e+00 1.00648826e-01 
147 291.12 2.78160011e+00 8.34480034e-02 
148 291.93 2.33153815e+00 6.99461446e-02 
149 292.74 1.97095712e+00 5.91287135e-02 
150 293.55 1.71647750e+00 5.14943249e-02 
151 294.35 1.46082294e+00 4.38246883e-02 
152 295.16 1.30716470e+00 3.92149409e-02 
153 295.97 1.15408908e+00 3.46226725e-02 
154 296.78 1.04559292e+00 3.13677875e-02 
155 297.58 9.62108036e-01 2.88632411e-02 
156 298.39 8.73541801e-01 2.62062540e-02 
157 299.20 8.25290850e-01 2.47587255e-02 
158 300.01 7.52871183e-01 2.25861355e-02 
159 300.81 7.12553316e-01 2.13765995e-02 
160 301.62 6.77199082e-01 2.03159724e-02 
161 302.43 6.42263936e-01 1.92679181e-02 
162 303.24 6.23560386e-01 1.87068116e-02 
163 304.05 5.97887038e-01 1.79366111e-02 
164 304.85 5.83590640e-01 1.75077192e-02 
165 305.66 5.62032038e-01 1.68609611e-02 
166 306.47 5.46660764e-01 1.63998229e-02 
167 307.28 5.35313506e-01 1.60594052e-02 
168 308.08 5.27678188e-01 1.58303456e-02 
169 308.89 5.28306010e-01 1.58491803e-02 
170 309.70 5.09257183e-01 1.52777155e-02 
171 310.51 5.14034550e-01 1.54210365e-02 
172 311.32 5.08297239e-01 1.52489172e-02 
173 312.12 5.08611399e-01 1.52583420e-02 
174 312.93 5.00396330e-01 1.50118899e-02 
175 313.74 5.02092202e-01 1.50627660e-02 
176 314.55 5.01951272e-01 1.50585382e-02 
177 315.36 5.03963594e-01 1.51189078e-02 
178 316.16 5.07584638e-01 1.52275391e-02 
179 316.97 5.16349823e-01 1.54904947e-02 
180 317.78 5.24479562e-01 1.57343869e-02 
181 318.59 5.32593353e-01 1.59778006e-02 
182 319.39 5.29601823e-01 1.58880547e-02 
183 320.20 5.46111423e-01 1.63833427e-02 
184 321.01 5.50891634e-01 1.65267490e-02 
185 321.82 5.62458902e-01 1.68737671e-02 
186 322.63 5.86094792e-01 1.75828438e-02 
187 323.43 5.99954091e-01 1.79986227e-02 
188 324.24 6.06975532e-01 1.82092660e-02 
189 325.05 6.26009005e-01 1.87802701e-02 
190 325.86 6.35012133e-01 1.90503640e-02 
191 326.67 6.63375387e-01 1.99012616e-02 
192 327.48 6.78169500e-01 2.03450850e-02 
193 328.28 7.03478786e-01 2.11043636e-02 
194 329.09 7.29382355e-01 2.18814707e-02 
195 329.90 7.56459192e-01 2.26937757e-02 
196 330.71 8.00143328e-01 2.40042998e-02 
197 331.51 8.44027772e-01 2.53208332e-02 
198 332.32 9.35590128e-01 2.80677038e-02 
199 333.13 1.07203604e+00 3.21610812e-02 
200 333.94 1.36742901e+00 4.10228704e-02 
201 334.75 1.84060070e+00 5.52180210e-02 
202 335.56 2.56129764e+00 7.68389292e-02 
203 336.36 3.65314133e+00 1.09594240e-01 
204 337.17 5.43128811e+00 1.62938643e-01 
205 337.98 8.09326815e+00 2.42798045e-01 
206 338.79 1.14181058e+01 3.42543173e-01 
207 339.59 1.52904946e+01 4.58714837e-01 
208 340.40 1.88836964e+01 5.66510893e-01 
209 341.21 2.20136538e+01 6.60409614e-01 
210 342.02 2.57041820e+01 7.71125459e-01 
211 342.83 2.90396777e+01 8.71190332e-01 
212 343.64 3.01951344e+01 9.05854032e-01 
213 344.44 3.14419499e+01 9.43258497e-01 
214 345.25 3.51845383e+01 1.05553615e+00 
215 346.06 3.89080913e+01 1.16724274e+00 
216 346.87 4.13966874e+01 1.24190062e+00 
217 347.67 4.32130831e+01 1.29639249e+00 
218 348.48 4.48167444e+01 1.34450233e+00 
219 349.29 4.76112281e+01 1.42833684e+00 
220 350.10 5.24422936e+01 1.57326881e+00 
221 350.91 5.59930985e+01 1.67979295e+00 
222 351.71 5.64091814e+01 1.69227544e+00 
223 352.52 5.74199472e+01 1.72259841e+00 
224 353.33 6.24973237e+01 1.87491971e+00 
225 354.14 6.92868640e+01 2.07860592e+00 
226 354.94 7.25581517e+01 2.17674455e+00 
227 355.75 7.16392689e+01 2.14917807e+00 
228 356.56 6.76893677e+01 2.03068103e+00 
229 357.37 6.36112791e+01 1.90833837e+00 
230 358.18 6.26515823e+01 1.87954747e+00 
231 358.98 7.00784941e+01 2.10235482e+00 
232 359.79 8.13944831e+01 2.44183449e+00 
233 360.60 8.35199243e+01 2.50559773e+00 
234 361.41 8.21302585e+01 2.46390776e+00 
235 362.21 8.65015228e+01 2.59504568e+00 
236 363.02 9.18895302e+01 2.75668591e+00 
237 363.83 9.50759724e+01 2.85227917e+00 
238 364.64 9.96661325e+01 2.98998397e+00 
239 365.44 1.08608490e+02 3.25825469e+00 
240 366.25 1.16868929e+02 3.50606787e+00 
241 367.06 1.18256697e+02 3.54770091e+00 
242 367.87 1.16454800e+02 3.49364400e+00 
243 368.67 1.17900954e+02 3.53702863e+00 
244 369.48 1.23163702e+02 3.69491107e+00 
245 370.29 1.24724080e+02 3.74172239e+00 
246 371.10 1.23431366e+02 3.70294097e+00 
247 371.90 1.20543651e+02 3.61630952e+00 
248 372.71 1.14057908e+02 3.42173723e+00 
249 373.52 1.07654918e+02 3.22964754e+00 
250 374.33 1.06705437e+02 3.20116311e+00 
251 375.13 1.13926575e+02 3.41779726e+00 
252 375.94 1.24292975e+02 3.72878925e+00 
253 376.75 1.35330696e+02 4.05992089e+00 
254 377.55 1.48316204e+02 4.44948611e+00 
255 378.36 1.52702844e+02 4.58108533e+00 
256 379.17 1.45339403e+02 4.36018210e+00 
257 379.98 1.41683300e+02 4.25049901e+00 
258 380.78 1.41821249e+02 4.25463746e+00 
259 381.59 1.30256371e+02 3.90769113e+00 
260 382.40 1.11051744e+02 3.33155232e+00 
261 383.21 1.01431953e+02 3.04295860e+00 
262 384.01 1.09318001e+02 3.27954003e+00 
263 384.82 1.24122661e+02 3.72367983e+00 
264 385.63 1.30877369e+02 3.92632106e+00 
265 386.43 1.32131816e+02 3.96395448e+00 
266 387.24 1.33185978e+02 3.99557935e+00 
267 388.05 1.35300183e+02 4.05900549e+00 
268 388.85 1.43339157e+02 4.30017472e+00 
269 389.66 1.56919287e+02 4.70757861e+00 
270 390.47 1.68373507e+02 5.05120522e+00 
271 391.27 1.70277679e+02 5.10833038e+00 
272 392.08 1.53444949e+02 4.60334848e+00 
273 392.89 1.25058717e+02 3.75176152e+00 
274 393.69 1.16925257e+02 3.50775772e+00 
275 394.50 1.39033028e+02 4.17099084e+00 
276 395.31 1.57349576e+02 4.72048727e+00 
277 396.11 1.48299590e+02 4.44898769e+00 
278 396.92 1.39730524e+02 4.19191571e+00 
279 397.73 1.63631319e+02 4.90893958e+00 
280 398.53 2.03045396e+02 6.09136189e+00 
281 399.34 2.29050503e+02 6.87151509e+00 
282 400.15 2.41838846e+02 7.25516537e+00 
283 400.95 2.50661527e+02 7.51984581e+00 
284 401.76 2.57830479e+02 7.73491437e+00 
285 402.57 2.60354861e+02 7.81064584e+00 
286 403.37 2.59048601e+02 7.77145804e+00 
287 404.18 2.57828669e+02 7.73486006e+00 
288 404.98 2.56680256e+02 7.70040768e+00 
289 405.79 2.55368657e+02 7.66105972e+00 
290 406.60 2.55954378e+02 7.67863135e+00 
291 407.40 2.61901923e+02 7.85705770e+00 
292 408.21 2.71721127e+02 8.15163380e+00 
293 409.02 2.75955300e+02 8.27865900e+00 
294 409.82 2.72832943e+02 8.18498830e+00 
295 410.63 2.75190058e+02 8.25570175e+00 
296 411.44 2.86721009e+02 8.60163027e+00 
297 412.24 2.95204254e+02 8.85612761e+00 
298 413.05 2.96490475e+02 8.89471426e+00 
299 413.85 2.96436676e+02 8.89310029e+00 
300 414.66 2.97104861e+02 8.91314582e+00 
301 415.46 2.98473943e+02 8.95421828e+00 
302 416.27 2.99068737e+02 8.97206210e+00 
303 417.08 2.95839045e+02 8.87517135e+00 
304 417.88 2.91008378e+02 8.73025134e+00 
305 418.69 2.89008358e+02 8.67025073e+00 
306 419.49 2.90073297e+02 8.70219892e+00 
307 420.30 2.94207345e+02 8.82622035e+00 
308 421.11 2.98172198e+02 8.94516593e+00 
309 421.91 2.96785085e+02 8.90355254e+00 
310 422.72 2.92381070e+02 8.77143210e+00 
311 423.52 2.92172590e+02 8.76517771e+00 
312 424.33 2.95500437e+02 8.86501312e+00 
313 425.13 2.97590117e+02 8.92770351e+00 
314 425.94 2.97474099e+02 8.92422297e+00 
315 426.74 2.96542187e+02 8.89626560e+00 
316 427.55 2.95421977e+02 8.86265931e+00 
317 428.35 2.91234767e+02 8.73704301e+00 
318 429.16 2.79415024e+02 8.38245073e+00 
319 429.96 2.65936346e+02 7.97809039e+00 
320 430.77 2.70171164e+02 8.10513491e+00 
321 431.58 2.96180042e+02 8.88540126e+00 
322 432.38 3.24542741e+02 9.73628224e+00 
323 433.19 3.38033372e+02 1.01410012e+01 
324 433.99 3.43839644e+02 1.03151893e+01 
325 434.80 3.55363673e+02 1.06609102e+01 
326 435.60 3.72724288e+02 1.11817286e+01 
327 436.41 3.84890922e+02 1.15467277e+01 
328 437.21 3.84373618e+02 1.15312086e+01 
329 438.02 3.77977144e+02 1.13393143e+01 
330 438.82 3.77808546e+02 1.13342564e+01 
331 439.63 3.87063977e+02 1.16119193e+01 
332 440.43 4.02066905e+02 1.20620072e+01 
333 441.24 4.17880808e+02 1.25364243e+01 
334 442.04 4.32157689e+02 1.29647307e+01 
335 442.84 4.42113110e+02 1.32633933e+01 
336 443.65 4.47727490e+02 1.34318247e+01 
337 444.45 4.49561510e+02 1.34868453e+01 
338 445.26 4.48610891e+02 1.34583267e+01 
339 446.06 4.51000384e+02 1.35300115e+01 
340 446.87 4.60171577e+02 1.38051473e+01 
341 447.67 4.72752062e+02 1.41825619e+01 
342 448.48 4.82754661e+02 1.44826398e+01 
343 449.28 4.91861641e+02 1.47558492e+01 
344 450.09 5.02157520e+02 1.50647256e+01 
345 450.89 5.08511419e+02 1.52553426e+01 
346 451.69 5.04659286e+02 1.51397786e+01 
347 452.50 4.94998212e+02 1.48499464e+01 
348 453.30 4.89752317e+02 1.46925695e+01 
349 454.11 4.92030829e+02 1.47609249e+01 
350 454.91 4.99595011e+02 1.49878503e+01 
351 455.72 5.08022875e+02 1.52406863e+01 
352 456.52 5.14977407e+02 1.54493222e+01 
353 457.32 5.18100361e+02 1.55430108e+01 
354 458.13 5.17111162e+02 1.55133349e+01 
355 458.93 5.16055581e+02 1.54816674e+01 
356 459.74 5.18962320e+02 1.55688696e+01 
357 460.54 5.25742889e+02 1.57722867e+01 
358 461.34 5.33484788e+02 1.60045436e+01 
359 462.15 5.38841219e+02 1.61652366e+01 
360 462.95 5.39376915e+02 1.61813074e+01 
361 463.76 5.36152034e+02 1.60845610e+01 
362 464.56 5.32564571e+02 1.59769371e+01 
363 465.36 5.29947788e+02 1.58984337e+01 
364 466.17 5.28542051e+02 1.58562615e+01 
365 466.97 5.29112676e+02 1.58733803e+01 
366 467.77 5.31691551e+02 1.59507465e+01 
367 468.58 5.34919791e+02 1.60475937e+01 
368 469.38 5.35963076e+02 1.60788923e+01 
369 470.18 5.36787644e+02 1.61036293e+01 
370 470.99 5.41937432e+02 1.62581230e+01 
371 471.79 5.50012335e+02 1.65003701e+01 
372 472.59 5.57327214e+02 1.67198164e+01 
373 473.40 5.62399619e+02 1.68719886e+01 
374 474.20 5.65664106e+02 1.69699232e+01 
375 475.00 5.67729482e+02 1.70318845e+01 
376 475.81 5.69182853e+02 1.70754856e+01 
377 476.61 5.72105604e+02 1.71631681e+01 
378 477.41 5.77627494e+02 1.73288248e+01 
379 478.21 5.83408812e+02 1.75022644e+01 
380 479.02 5.87440808e+02 1.76232242e+01 
381 479.82 5.89723222e+02 1.76916967e+01 
382 480.62 5.92281686e+02 1.77684506e+01 
383 481.43 5.93671026e+02 1.78101308e+01 
384 482.23 5.92661695e+02 1.77798509e+01 
385 483.03 5.88288828e+02 1.76486649e+01 
386 483.84 5.78634989e+02 1.73590497e+01 
387 484.64 5.60235975e+02 1.68070792e+01 
388 485.44 5.37597149e+02 1.61279145e+01 
389 486.24 5.23764205e+02 1.57129261e+01 
390 487.05 5.25474975e+02 1.57642493e+01 
391 487.85 5.39942235e+02 1.61982670e+01 
392 488.65 5.57795122e+02 1.67338537e+01 
393 489.45 5.70281531e+02 1.71084459e+01 
394 490.26 5.74851425e+02 1.72455428e+01 
395 491.06 5.73147457e+02 1.71944237e+01 
396 491.86 5.69110393e+02 1.70733118e+01 
397 492.66 5.68399669e+02 1.70519901e+01 
398 493.46 5.73465517e+02 1.72039655e+01 
399 494.27 5.79920411e+02 1.73976123e+01 
400 495.07 5.83738964e+02 1.75121689e+01 
401 495.87 5.85459243e+02 1.75637773e+01 
402 496.67 5.83443225e+02 1.75032968e+01 
403 497.48 5.79030811e+02 1.73709243e+01 
404 498.28 5.74323062e+02 1.72296919e+01 
405 499.08 5.68835144e+02 1.70650543e+01 
406 499.88 5.62951013e+02 1.68885304e+01 
407 500.68 5.57938501e+02 1.67381550e+01 
408 501.48 5.55327464e+02 1.66598239e+01 
409 502.29 5.56968591e+02 1.67090577e+01 
410 503.09 5.60720060e+02 1.68216018e+01 
411 503.89 5.65670369e+02 1.69701111e+01 
412 504.69 5.71426777e+02 1.71428033e+01 
413 505.49 5.76085234e+02 1.72825570e+01 
414 506.29 5.77420664e+02 1.73226199e+01 
415 507.09 5.75093298e+02 1.72527989e+01 
416 507.90 5.72060543e+02 1.71618163e+01 
417 508.70 5.70903046e+02 1.71270914e+01 
418 509.50 5.71561940e+02 1.71468582e+01 
419 510.30 5.72888025e+02 1.71866408e+01 
420 511.10 5.72301229e+02 1.71690369e+01 
421 511.90 5.68918816e+02 1.70675645e+01 
422 512.70 5.63023017e+02 1.68906905e+01 
423 513.51 5.56264460e+02 1.66879338e+01 
424 514.31 5.50656425e+02 1.65196927e+01 
425 515.11 5.42565462e+02 1.62769639e+01 
426 515.91 5.28887247e+02 1.58666174e+01 
427 516.71 5.14491774e+02 1.54347532e+01 
428 517.51 5.05826130e+02 1.51747839e+01 
429 518.31 5.08437812e+02 1.52531344e+01 
430 519.11 5.20512334e+02 1.56153700e+01 
431 519.91 5.33518315e+02 1.60055494e+01 
432 520.71 5.43388061e+02 1.63016418e+01 
433 521.51 5.47739190e+02 1.64321757e+01 
434 522.32 5.49830068e+02 1.64949020e+01 
435 523.12 5.53526691e+02 1.66058007e+01 
436 523.92 5.57451226e+02 1.67235368e+01 
437 524.72 5.57643085e+02 1.67292926e+01 
438 525.52 5.50564132e+02 1.65169240e+01 
439 526.32 5.40946080e+02 1.62283824e+01 
440 527.12 5.38479508e+02 1.61543852e+01 
441 527.92 5.45274271e+02 1.63582281e+01 
442 528.72 5.57522003e+02 1.67256601e+01 
443 529.52 5.68665648e+02 1.70599694e+01 
444 530.32 5.73993542e+02 1.72198062e+01 
445 531.12 5.72596033e+02 1.71778810e+01 
446 531.92 5.67508885e+02 1.70252665e+01 
447 532.72 5.62581103e+02 1.68774331e+01 
448 533.52 5.61703351e+02 1.68511005e+01 
449 534.32 5.65706755e+02 1.69712026e+01 
450 535.12 5.70209061e+02 1.71062718e+01 
451 535.92 5.71060531e+02 1.71318159e+01 
452 536.72 5.69516532e+02 1.70854960e+01 
453 537.52 5.66940362e+02 1.70082109e+01 
454 538.32 5.63300962e+02 1.68990289e+01 
455 539.12 5.58575874e+02 1.67572762e+01 
456 539.92 5.54007508e+02 1.66202252e+01 
457 540.72 5.52157688e+02 1.65647307e+01 
458 541.52 5.53858159e+02 1.66157448e+01 
459 542.32 5.58346017e+02 1.67503805e+01 
460 543.12 5.62960669e+02 1.68888201e+01 
461 543.92 5.66330899e+02 1.69899270e+01 
462 544.72 5.68413734e+02 1.70524120e+01 
463 545.52 5.68343705e+02 1.70503111e+01 
464 546.31 5.65852872e+02 1.69755862e+01 
465 547.12 5.62651601e+02 1.68795480e+01 
466 547.91 5.60847140e+02 1.68254142e+01 
467 548.71 5.60403512e+02 1.68121054e+01 
468 549.51 5.60584697e+02 1.68175409e+01 
469 550.31 5.60147075e+02 1.68044123e+01 
470 551.11 5.59300758e+02 1.67790227e+01 
471 551.91 5.58745269e+02 1.67623581e+01 
