% C0 (TOA Count Rate, /ms) for 4STAR NIR spectrometer (512 channels) derived from 20160109starsun_wFORJcorr.mat and recorded on 2016-01-29 19:55:03.
% Data outside 2.0x the STD of 501 nm Langley residuals were screened out.
Pix Wavelength C0 C0err
511 949.79 4.77167939e+00 1.43150382e-01 
510 949.79 4.94642662e+00 1.48392799e-01 
509 951.68 5.33972903e+00 1.60191871e-01 
508 953.57 5.40677685e+00 1.62203305e-01 
507 955.46 5.88910256e+00 1.76673077e-01 
506 957.34 6.01544009e+00 1.80463203e-01 
505 959.22 6.51637380e+00 1.95491214e-01 
504 961.10 6.64070558e+00 1.99221167e-01 
503 962.98 7.12292959e+00 2.13687888e-01 
502 964.85 7.15866216e+00 2.14759865e-01 
501 966.72 7.72203935e+00 2.31661181e-01 
500 968.59 7.79114346e+00 2.33734304e-01 
499 970.45 8.21046709e+00 2.46314013e-01 
498 972.32 8.16227568e+00 2.44868270e-01 
497 974.18 8.50299464e+00 2.55089839e-01 
496 976.04 8.42266286e+00 2.52679886e-01 
495 977.89 8.79017100e+00 2.63705130e-01 
494 979.74 8.72564692e+00 2.61769408e-01 
493 981.59 9.01952346e+00 2.70585704e-01 
492 983.44 8.95168590e+00 2.68550577e-01 
491 985.29 9.20236063e+00 2.76070819e-01 
490 987.13 9.01097252e+00 2.70329175e-01 
489 988.97 9.25069093e+00 2.77520728e-01 
488 990.81 9.05899979e+00 2.71769994e-01 
487 992.65 9.24583991e+00 2.77375197e-01 
486 994.48 9.05608076e+00 2.71682423e-01 
485 996.31 9.19367689e+00 2.75810307e-01 
484 998.14 8.95324718e+00 2.68597416e-01 
483 999.97 9.09308537e+00 2.72792561e-01 
482 1001.79 8.82349849e+00 2.64704955e-01 
481 1003.62 8.89115775e+00 2.66734732e-01 
480 1005.44 8.68922070e+00 2.60676621e-01 
479 1007.25 8.94385109e+00 2.68315533e-01 
478 1009.07 8.76795760e+00 2.63038728e-01 
477 1010.88 8.91805312e+00 2.67541594e-01 
476 1012.69 8.67729976e+00 2.60318993e-01 
475 1014.50 8.79562242e+00 2.63868673e-01 
474 1016.31 8.57798735e+00 2.57339621e-01 
473 1018.11 8.71522310e+00 2.61456693e-01 
472 1019.91 8.48806065e+00 2.54641820e-01 
471 1021.71 8.61559411e+00 2.58467823e-01 
470 1023.51 8.38541850e+00 2.51562555e-01 
469 1025.30 8.53360553e+00 2.56008166e-01 
468 1027.09 8.43596910e+00 2.53079073e-01 
467 1028.88 8.58415377e+00 2.57524613e-01 
466 1030.67 8.44469783e+00 2.53340935e-01 
465 1032.46 8.60948360e+00 2.58284508e-01 
464 1034.24 8.46439616e+00 2.53931885e-01 
463 1036.02 8.63564521e+00 2.59069356e-01 
462 1037.80 8.52478341e+00 2.55743502e-01 
461 1039.58 8.72869691e+00 2.61860907e-01 
460 1041.35 8.60605815e+00 2.58181744e-01 
459 1043.12 8.78307511e+00 2.63492253e-01 
458 1044.89 8.69711522e+00 2.60913456e-01 
457 1046.66 8.90989074e+00 2.67296722e-01 
456 1048.43 8.83569258e+00 2.65070778e-01 
455 1050.19 9.06228500e+00 2.71868550e-01 
454 1051.95 8.93093385e+00 2.67928016e-01 
453 1053.71 9.20032951e+00 2.76009885e-01 
452 1055.47 9.05260090e+00 2.71578027e-01 
451 1057.23 9.18472887e+00 2.75541866e-01 
450 1058.98 9.04277136e+00 2.71283141e-01 
449 1060.73 9.21518280e+00 2.76455484e-01 
448 1062.48 9.04921541e+00 2.71476462e-01 
447 1064.23 9.17179719e+00 2.75153916e-01 
446 1065.97 8.91363341e+00 2.67409002e-01 
445 1067.71 8.96692769e+00 2.69007831e-01 
444 1069.46 8.73676713e+00 2.62103014e-01 
443 1071.19 8.83527514e+00 2.65058254e-01 
442 1072.93 8.67249031e+00 2.60174709e-01 
441 1074.67 8.75045703e+00 2.62513711e-01 
440 1076.40 8.55411223e+00 2.56623367e-01 
439 1078.13 8.59058639e+00 2.57717592e-01 
438 1079.86 8.34073734e+00 2.50222120e-01 
437 1081.58 8.41770253e+00 2.52531076e-01 
436 1083.31 8.31567780e+00 2.49470334e-01 
435 1085.03 8.49849003e+00 2.54954701e-01 
434 1086.75 8.42564114e+00 2.52769234e-01 
433 1088.47 8.55199517e+00 2.56559855e-01 
432 1090.19 8.43339607e+00 2.53001882e-01 
431 1091.90 8.54405766e+00 2.56321730e-01 
430 1093.61 8.39040152e+00 2.51712046e-01 
429 1095.33 8.60057424e+00 2.58017227e-01 
428 1097.03 8.62563189e+00 2.58768957e-01 
427 1098.74 8.88685352e+00 2.66605606e-01 
426 1100.45 8.89652920e+00 2.66895876e-01 
425 1102.15 9.17774421e+00 2.75332326e-01 
424 1103.85 9.16450047e+00 2.74935014e-01 
423 1105.55 9.39123438e+00 2.81737032e-01 
422 1107.25 9.27128238e+00 2.78138471e-01 
421 1108.94 9.31577900e+00 2.79473370e-01 
420 1110.64 9.00232601e+00 2.70069780e-01 
419 1112.33 8.80883453e+00 2.64265036e-01 
418 1114.02 8.23916702e+00 2.47175011e-01 
417 1115.70 8.07474793e+00 2.42242438e-01 
416 1117.39 7.74221149e+00 2.32266345e-01 
415 1119.07 7.60451822e+00 2.28135547e-01 
414 1120.76 7.33687097e+00 2.20106129e-01 
413 1122.44 7.25433613e+00 2.17630084e-01 
412 1124.12 7.18633443e+00 2.15590033e-01 
411 1125.79 7.48064422e+00 2.24419326e-01 
410 1127.47 7.73695562e+00 2.32108668e-01 
409 1129.14 8.20743265e+00 2.46222980e-01 
408 1130.81 7.68907282e+00 2.30672184e-01 
407 1132.48 7.43079043e+00 2.22923713e-01 
406 1134.15 7.29191586e+00 2.18757476e-01 
405 1135.81 7.76744101e+00 2.33023230e-01 
404 1137.48 8.55356413e+00 2.56606924e-01 
403 1139.14 8.91549576e+00 2.67464873e-01 
402 1140.80 8.62693859e+00 2.58808158e-01 
401 1142.46 8.44564400e+00 2.53369320e-01 
400 1144.12 8.09339895e+00 2.42801968e-01 
399 1145.77 8.10498732e+00 2.43149620e-01 
398 1147.43 8.14802226e+00 2.44440668e-01 
397 1149.08 8.43310201e+00 2.52993060e-01 
396 1150.73 8.42045112e+00 2.52613534e-01 
395 1152.38 8.71431685e+00 2.61429506e-01 
394 1154.02 8.79348694e+00 2.63804608e-01 
393 1155.67 9.12224857e+00 2.73667457e-01 
392 1157.31 9.10627676e+00 2.73188303e-01 
391 1158.95 9.24118771e+00 2.77235631e-01 
390 1160.59 9.26994056e+00 2.78098217e-01 
389 1162.23 9.48768872e+00 2.84630662e-01 
388 1163.87 9.44006689e+00 2.83202007e-01 
387 1165.50 9.53876484e+00 2.86162945e-01 
386 1167.13 9.40673743e+00 2.82202123e-01 
385 1168.76 9.52070313e+00 2.85621094e-01 
384 1170.39 9.35443674e+00 2.80633102e-01 
383 1172.02 9.31738633e+00 2.79521590e-01 
382 1173.65 9.14302641e+00 2.74290792e-01 
381 1175.27 9.16626962e+00 2.74988089e-01 
380 1176.90 9.06799516e+00 2.72039855e-01 
379 1178.52 8.99135874e+00 2.69740762e-01 
378 1180.14 8.72620520e+00 2.61786156e-01 
377 1181.75 8.68051069e+00 2.60415321e-01 
376 1183.37 8.48077418e+00 2.54423225e-01 
375 1184.99 8.49647698e+00 2.54894309e-01 
374 1186.60 8.38504560e+00 2.51551368e-01 
373 1188.21 8.38304736e+00 2.51491421e-01 
372 1189.82 8.31057860e+00 2.49317358e-01 
371 1191.43 8.53954190e+00 2.56186257e-01 
370 1193.04 8.44454408e+00 2.53336322e-01 
369 1194.64 8.40677530e+00 2.52203259e-01 
368 1196.24 8.20426836e+00 2.46128051e-01 
367 1197.85 8.26089304e+00 2.47826791e-01 
366 1199.45 8.16439642e+00 2.44931893e-01 
365 1201.05 8.22345012e+00 2.46703504e-01 
364 1202.64 8.15375084e+00 2.44612525e-01 
363 1204.24 8.19562394e+00 2.45868718e-01 
362 1205.83 8.14330212e+00 2.44299064e-01 
361 1207.43 8.16839508e+00 2.45051852e-01 
360 1209.02 8.11111686e+00 2.43333506e-01 
359 1210.61 8.23828200e+00 2.47148460e-01 
358 1212.19 8.24652814e+00 2.47395844e-01 
357 1213.78 8.44384796e+00 2.53315439e-01 
356 1215.37 8.38014711e+00 2.51404413e-01 
355 1216.95 8.44801120e+00 2.53440336e-01 
354 1218.53 8.40929890e+00 2.52278967e-01 
353 1220.11 8.47372155e+00 2.54211646e-01 
352 1221.69 8.42148742e+00 2.52644623e-01 
351 1223.27 8.46464303e+00 2.53939291e-01 
350 1224.84 8.47210971e+00 2.54163291e-01 
349 1226.42 8.53075553e+00 2.55922666e-01 
348 1227.99 8.51848814e+00 2.55554644e-01 
347 1229.56 8.62388720e+00 2.58716616e-01 
346 1231.13 8.55379552e+00 2.56613866e-01 
345 1232.70 8.64719189e+00 2.59415757e-01 
344 1234.27 8.63357227e+00 2.59007168e-01 
343 1235.84 8.63370328e+00 2.59011098e-01 
342 1237.40 8.55909145e+00 2.56772743e-01 
341 1238.96 8.54625113e+00 2.56387534e-01 
340 1240.52 8.38516628e+00 2.51554988e-01 
339 1242.08 8.49962597e+00 2.54988779e-01 
338 1243.64 8.49108854e+00 2.54732656e-01 
337 1245.20 8.53782600e+00 2.56134780e-01 
336 1246.75 8.50810772e+00 2.55243232e-01 
335 1248.31 8.59204568e+00 2.57761370e-01 
334 1249.86 8.52532348e+00 2.55759704e-01 
333 1251.41 8.57536638e+00 2.57260991e-01 
332 1252.96 8.49737850e+00 2.54921355e-01 
331 1254.51 8.49863365e+00 2.54959010e-01 
330 1256.06 8.41701054e+00 2.52510316e-01 
329 1257.61 8.39174744e+00 2.51752423e-01 
328 1259.15 8.28442053e+00 2.48532616e-01 
327 1260.69 8.21373213e+00 2.46411964e-01 
326 1262.23 8.04279265e+00 2.41283779e-01 
325 1263.77 7.98374320e+00 2.39512296e-01 
324 1265.31 7.77313319e+00 2.33193996e-01 
323 1266.85 7.75433293e+00 2.32629988e-01 
322 1268.39 7.83387636e+00 2.35016291e-01 
321 1269.92 7.96670054e+00 2.39001016e-01 
320 1271.46 8.22135372e+00 2.46640612e-01 
319 1272.99 8.32292726e+00 2.49687818e-01 
318 1274.52 8.31496214e+00 2.49448864e-01 
317 1276.05 8.38047947e+00 2.51414384e-01 
316 1277.58 8.22446512e+00 2.46733954e-01 
315 1279.10 8.07160707e+00 2.42148212e-01 
314 1280.63 8.00986131e+00 2.40295839e-01 
313 1282.15 8.00607045e+00 2.40182113e-01 
312 1283.68 8.09346023e+00 2.42803807e-01 
311 1285.20 8.29618935e+00 2.48885680e-01 
310 1286.72 8.25700459e+00 2.47710138e-01 
309 1288.24 8.27470531e+00 2.48241159e-01 
308 1289.75 8.18853735e+00 2.45656120e-01 
307 1291.27 8.22858004e+00 2.46857401e-01 
306 1292.78 8.26158510e+00 2.47847553e-01 
305 1294.30 8.27374987e+00 2.48212496e-01 
304 1295.81 8.17941103e+00 2.45382331e-01 
303 1297.32 8.14730779e+00 2.44419234e-01 
302 1298.83 8.07208128e+00 2.42162438e-01 
301 1300.34 7.98743676e+00 2.39623103e-01 
300 1301.85 7.90438888e+00 2.37131667e-01 
299 1303.35 7.84062739e+00 2.35218822e-01 
298 1304.86 7.73762733e+00 2.32128820e-01 
297 1306.36 7.70690427e+00 2.31207128e-01 
296 1307.86 7.65922983e+00 2.29776895e-01 
295 1309.36 7.55695663e+00 2.26708699e-01 
294 1310.86 7.44223643e+00 2.23267093e-01 
293 1312.36 7.37271667e+00 2.21181500e-01 
292 1313.86 7.31721590e+00 2.19516477e-01 
291 1315.36 7.34104845e+00 2.20231453e-01 
290 1316.85 7.28210327e+00 2.18463098e-01 
289 1318.34 7.27882919e+00 2.18364876e-01 
288 1319.84 7.18106022e+00 2.15431807e-01 
287 1321.33 7.17614225e+00 2.15284267e-01 
286 1322.82 7.12153064e+00 2.13645919e-01 
285 1324.30 7.05852304e+00 2.11755691e-01 
284 1325.79 6.90041018e+00 2.07012305e-01 
283 1327.28 6.74319873e+00 2.02295962e-01 
282 1328.76 6.47774787e+00 1.94332436e-01 
281 1330.25 6.37554414e+00 1.91266324e-01 
280 1331.73 6.32930625e+00 1.89879188e-01 
279 1333.21 6.31870574e+00 1.89561172e-01 
278 1334.69 6.29409665e+00 1.88822899e-01 
277 1336.17 6.23227864e+00 1.86968359e-01 
276 1337.65 6.11716631e+00 1.83514989e-01 
275 1339.12 6.06957412e+00 1.82087224e-01 
274 1340.60 5.95739541e+00 1.78721862e-01 
273 1342.07 5.81847271e+00 1.74554181e-01 
272 1343.55 5.55032071e+00 1.66509621e-01 
271 1345.02 4.94884562e+00 1.48465369e-01 
270 1346.49 4.53615079e+00 1.36084524e-01 
269 1347.96 4.07412088e+00 1.22223626e-01 
268 1349.43 3.60313688e+00 1.08094106e-01 
267 1350.89 3.13729183e+00 9.41187549e-02 
266 1352.36 2.52447807e+00 7.57343420e-02 
265 1353.82 2.17300737e+00 6.51902210e-02 
264 1355.29 1.43866270e+00 4.31598809e-02 
263 1356.75 1.56289393e+00 4.68868180e-02 
262 1358.21 1.28182110e+00 3.84546330e-02 
261 1359.67 4.05623020e-01 1.21686906e-02 
260 1361.13 3.38730577e-01 1.01619173e-02 
259 1362.59 4.58900275e-01 1.37670083e-02 
258 1364.04 9.70320318e-01 2.91096096e-02 
257 1365.50 9.00153652e-01 2.70046096e-02 
256 1366.95 3.32668082e-01 9.98004246e-03 
255 1368.41 3.00659503e-01 9.01978508e-03 
254 1369.86 6.95581654e-01 2.08674496e-02 
253 1371.31 1.08148964e+00 3.24446892e-02 
252 1372.76 5.52422711e-01 1.65726813e-02 
251 1374.21 1.53426466e+00 4.60279397e-02 
250 1375.65 1.61672390e+00 4.85017169e-02 
249 1377.10 1.52722945e+00 4.58168836e-02 
248 1378.55 9.48424927e-01 2.84527478e-02 
247 1379.99 8.42766340e-01 2.52829902e-02 
246 1381.43 2.62081373e-01 7.86244118e-03 
245 1382.87 5.68780217e-01 1.70634065e-02 
244 1384.32 6.96241147e-01 2.08872344e-02 
243 1385.75 1.04666383e+00 3.13999149e-02 
242 1387.19 1.42953492e+00 4.28860477e-02 
241 1388.63 1.63963787e+00 4.91891362e-02 
240 1390.07 1.69716024e+00 5.09148073e-02 
239 1391.50 1.57590577e+00 4.72771731e-02 
238 1392.94 6.12317411e-01 1.83695223e-02 
237 1394.37 1.21284662e+00 3.63853987e-02 
236 1395.80 1.39560384e+00 4.18681153e-02 
235 1397.23 1.29932370e+00 3.89797111e-02 
234 1398.66 1.02246390e+00 3.06739169e-02 
233 1400.09 1.56815851e+00 4.70447552e-02 
232 1401.52 1.38301868e+00 4.14905604e-02 
231 1402.94 1.63585427e+00 4.90756281e-02 
230 1404.37 1.77666397e+00 5.32999190e-02 
229 1405.79 1.67259724e+00 5.01779171e-02 
228 1407.22 1.75304747e+00 5.25914240e-02 
227 1408.64 1.88311228e+00 5.64933685e-02 
226 1410.06 2.06172917e+00 6.18518752e-02 
225 1411.48 2.04077511e+00 6.12232534e-02 
224 1412.90 2.23707660e+00 6.71122981e-02 
223 1414.32 2.42773831e+00 7.28321492e-02 
222 1415.73 2.34331549e+00 7.02994646e-02 
221 1417.15 2.41144882e+00 7.23434645e-02 
220 1418.56 2.54369741e+00 7.63109223e-02 
219 1419.98 2.49443517e+00 7.48330552e-02 
218 1421.39 2.66992863e+00 8.00978588e-02 
217 1422.80 2.91829001e+00 8.75487003e-02 
216 1424.21 2.98720234e+00 8.96160701e-02 
215 1425.62 2.97162702e+00 8.91488107e-02 
214 1427.03 3.08812123e+00 9.26436370e-02 
213 1428.44 2.93139316e+00 8.79417947e-02 
212 1429.84 2.76956787e+00 8.30870360e-02 
211 1431.25 2.77586969e+00 8.32760907e-02 
210 1432.65 2.74817700e+00 8.24453099e-02 
209 1434.06 2.83696065e+00 8.51088195e-02 
208 1435.46 2.93537571e+00 8.80612712e-02 
207 1436.86 3.00742222e+00 9.02226665e-02 
206 1438.26 3.03178800e+00 9.09536400e-02 
205 1439.66 3.10163085e+00 9.30489255e-02 
204 1441.05 3.27026878e+00 9.81080634e-02 
203 1442.45 3.21823695e+00 9.65471085e-02 
202 1443.85 3.24739840e+00 9.74219521e-02 
201 1445.24 3.38501294e+00 1.01550388e-01 
200 1446.64 3.41158537e+00 1.02347561e-01 
199 1448.03 3.31424990e+00 9.94274970e-02 
198 1449.42 3.39186481e+00 1.01755944e-01 
197 1450.81 3.42734055e+00 1.02820216e-01 
196 1452.20 3.50684105e+00 1.05205232e-01 
195 1453.59 3.83772521e+00 1.15131756e-01 
194 1454.97 4.07235055e+00 1.22170516e-01 
193 1456.36 4.13315526e+00 1.23994658e-01 
192 1457.75 4.17374275e+00 1.25212282e-01 
191 1459.13 4.13600695e+00 1.24080208e-01 
190 1460.51 4.05857833e+00 1.21757350e-01 
189 1461.90 3.88932790e+00 1.16679837e-01 
188 1463.28 3.78431173e+00 1.13529352e-01 
187 1464.66 3.66465557e+00 1.09939667e-01 
186 1466.04 3.69114743e+00 1.10734423e-01 
185 1467.41 3.51369941e+00 1.05410982e-01 
184 1468.79 3.41710040e+00 1.02513012e-01 
183 1470.17 3.36021713e+00 1.00806514e-01 
182 1471.54 3.42250754e+00 1.02675226e-01 
181 1472.92 3.56299262e+00 1.06889779e-01 
180 1474.29 3.73387960e+00 1.12016388e-01 
179 1475.66 3.77631384e+00 1.13289415e-01 
178 1477.03 3.72684187e+00 1.11805256e-01 
177 1478.40 3.66435584e+00 1.09930675e-01 
176 1479.77 3.76243821e+00 1.12873146e-01 
175 1481.14 3.81652229e+00 1.14495669e-01 
174 1482.51 3.93953890e+00 1.18186167e-01 
173 1483.87 3.93902644e+00 1.18170793e-01 
172 1485.24 3.90485827e+00 1.17145748e-01 
171 1486.60 3.87276922e+00 1.16183077e-01 
170 1487.96 3.95619705e+00 1.18685911e-01 
169 1489.32 4.00159899e+00 1.20047970e-01 
168 1490.69 4.19010161e+00 1.25703048e-01 
167 1492.04 4.20665194e+00 1.26199558e-01 
166 1493.40 4.26188454e+00 1.27856536e-01 
165 1494.76 4.23647138e+00 1.27094141e-01 
164 1496.12 4.27406989e+00 1.28222097e-01 
163 1497.47 4.25495568e+00 1.27648670e-01 
162 1498.83 4.34217668e+00 1.30265300e-01 
161 1500.18 4.18549798e+00 1.25564940e-01 
160 1501.53 4.09934916e+00 1.22980475e-01 
159 1502.89 3.99557087e+00 1.19867126e-01 
158 1504.24 4.04432654e+00 1.21329796e-01 
157 1505.59 4.07476809e+00 1.22243043e-01 
156 1506.93 4.21550021e+00 1.26465006e-01 
155 1508.28 4.25572258e+00 1.27671677e-01 
154 1509.63 4.30253411e+00 1.29076023e-01 
153 1510.97 4.28348404e+00 1.28504521e-01 
152 1512.32 4.35121576e+00 1.30536473e-01 
151 1513.66 4.29129310e+00 1.28738793e-01 
150 1515.00 4.35262476e+00 1.30578743e-01 
149 1516.34 4.31135721e+00 1.29340716e-01 
148 1517.69 4.31235374e+00 1.29370612e-01 
147 1519.02 4.22372291e+00 1.26711687e-01 
146 1520.36 4.24045210e+00 1.27213563e-01 
145 1521.70 4.19186705e+00 1.25756012e-01 
144 1523.04 4.25454190e+00 1.27636257e-01 
143 1524.37 4.22075108e+00 1.26622532e-01 
142 1525.71 4.27900870e+00 1.28370261e-01 
141 1527.04 4.21794884e+00 1.26538465e-01 
140 1528.37 4.21299300e+00 1.26389790e-01 
139 1529.70 4.13799557e+00 1.24139867e-01 
138 1531.03 4.17837381e+00 1.25351214e-01 
137 1532.36 4.11171872e+00 1.23351562e-01 
136 1533.69 4.14800590e+00 1.24440177e-01 
135 1535.02 4.05606681e+00 1.21682004e-01 
134 1536.34 4.07619531e+00 1.22285859e-01 
133 1537.67 4.02518806e+00 1.20755642e-01 
132 1538.99 4.06720854e+00 1.22016256e-01 
131 1540.31 4.03318363e+00 1.20995509e-01 
130 1541.64 4.07964730e+00 1.22389419e-01 
129 1542.96 4.04493915e+00 1.21348175e-01 
128 1544.28 4.08127665e+00 1.22438299e-01 
127 1545.60 3.99571223e+00 1.19871367e-01 
126 1546.91 4.03948157e+00 1.21184447e-01 
125 1548.23 3.95322607e+00 1.18596782e-01 
124 1549.55 4.00107776e+00 1.20032333e-01 
123 1550.86 3.92564513e+00 1.17769354e-01 
122 1552.18 3.94426112e+00 1.18327833e-01 
121 1553.49 3.89105190e+00 1.16731557e-01 
120 1554.80 3.94922197e+00 1.18476659e-01 
119 1556.11 3.86226763e+00 1.15868029e-01 
118 1557.42 3.89155338e+00 1.16746602e-01 
117 1558.73 3.82054118e+00 1.14616236e-01 
116 1560.04 3.84778306e+00 1.15433492e-01 
115 1561.34 3.74522437e+00 1.12356731e-01 
114 1562.65 3.80698491e+00 1.14209547e-01 
113 1563.95 3.72394663e+00 1.11718399e-01 
112 1565.26 3.78750032e+00 1.13625010e-01 
111 1566.56 3.67553062e+00 1.10265919e-01 
110 1567.86 3.68940389e+00 1.10682117e-01 
109 1569.16 3.57900502e+00 1.07370150e-01 
108 1570.46 3.56460538e+00 1.06938161e-01 
107 1571.76 3.47491879e+00 1.04247564e-01 
106 1573.05 3.43075421e+00 1.02922626e-01 
105 1574.35 3.31078526e+00 9.93235577e-02 
104 1575.64 3.34293784e+00 1.00288135e-01 
103 1576.94 3.30700578e+00 9.92101734e-02 
102 1578.23 3.38005892e+00 1.01401768e-01 
101 1579.52 3.37763527e+00 1.01329058e-01 
100 1580.81 3.44535529e+00 1.03360659e-01 
99 1582.10 3.39474210e+00 1.01842263e-01 
98 1583.39 3.46650107e+00 1.03995032e-01 
97 1584.68 3.36287922e+00 1.00886377e-01 
96 1585.97 3.35927263e+00 1.00778179e-01 
95 1587.25 3.26205275e+00 9.78615825e-02 
94 1588.54 3.27452321e+00 9.82356962e-02 
93 1589.82 3.20688132e+00 9.62064395e-02 
92 1591.10 3.29233060e+00 9.87699179e-02 
91 1592.38 3.25930042e+00 9.77790126e-02 
90 1593.66 3.31878848e+00 9.95636545e-02 
89 1594.94 3.24053313e+00 9.72159938e-02 
88 1596.22 3.26046381e+00 9.78139144e-02 
87 1597.50 3.14400643e+00 9.43201930e-02 
86 1598.77 3.14917959e+00 9.44753878e-02 
85 1600.05 3.02663255e+00 9.07989766e-02 
84 1601.32 3.05774489e+00 9.17323468e-02 
83 1602.59 2.96751803e+00 8.90255410e-02 
82 1603.86 3.03486593e+00 9.10459779e-02 
81 1605.13 2.92357211e+00 8.77071633e-02 
80 1606.40 2.99497902e+00 8.98493707e-02 
79 1607.67 2.89152379e+00 8.67457137e-02 
78 1608.94 2.93686906e+00 8.81060717e-02 
77 1610.20 2.86409309e+00 8.59227928e-02 
76 1611.47 2.94888006e+00 8.84664019e-02 
75 1612.73 2.88403635e+00 8.65210906e-02 
74 1614.00 2.94362872e+00 8.83088615e-02 
73 1615.26 2.85777802e+00 8.57333406e-02 
72 1616.52 2.89436092e+00 8.68308276e-02 
71 1617.78 2.78138568e+00 8.34415704e-02 
70 1619.03 2.82795617e+00 8.48386851e-02 
69 1620.29 2.75267370e+00 8.25802110e-02 
68 1621.55 2.83353284e+00 8.50059852e-02 
67 1622.80 2.75898985e+00 8.27696955e-02 
66 1624.06 2.83604209e+00 8.50812626e-02 
65 1625.31 2.73812095e+00 8.21436284e-02 
64 1626.56 2.79154068e+00 8.37462204e-02 
63 1627.81 2.69497316e+00 8.08491947e-02 
62 1629.06 2.69396273e+00 8.08188819e-02 
61 1630.31 2.60390251e+00 7.81170754e-02 
60 1631.56 2.63530066e+00 7.90590198e-02 
59 1632.80 2.54086057e+00 7.62258172e-02 
58 1634.05 2.59114770e+00 7.77344310e-02 
57 1635.29 2.46951994e+00 7.40855981e-02 
56 1636.53 2.48850231e+00 7.46550694e-02 
55 1637.77 2.35508264e+00 7.06524793e-02 
54 1639.01 2.37159784e+00 7.11479352e-02 
53 1640.25 2.29477778e+00 6.88433333e-02 
52 1641.49 2.30903100e+00 6.92709300e-02 
51 1642.73 2.23362916e+00 6.70088748e-02 
