% C0 (TOA Count Rate, /ms) for 4STAR VIS spectrometer (1044 channels) derived from 4STAR_20160902starsun.mat and recorded on 2017-06-22 00:54:49.
% Using the MLO from September 2016 high altitude AOD for stratospheric AOD component, calculating the c0 from the AOD at low airmass. 
Pix Wavelength C0 C0err
0 173.18 0.00000000e+00 0.00000000e+00 
1 173.98 -1.00000000e+00 0.00000000e+00 
2 174.77 -1.00000000e+00 0.00000000e+00 
3 175.56 -1.00000000e+00 0.00000000e+00 
4 176.36 -1.00000000e+00 0.00000000e+00 
5 177.15 -1.00000000e+00 0.00000000e+00 
6 177.94 -1.00000000e+00 0.00000000e+00 
7 178.74 -1.00000000e+00 0.00000000e+00 
8 179.53 -1.00000000e+00 0.00000000e+00 
9 180.33 -1.00000000e+00 0.00000000e+00 
10 181.12 -1.00000000e+00 0.00000000e+00 
11 181.92 -1.00000000e+00 0.00000000e+00 
12 182.71 -1.00000000e+00 0.00000000e+00 
13 183.51 -1.00000000e+00 0.00000000e+00 
14 184.30 -1.00000000e+00 0.00000000e+00 
15 185.10 -1.00000000e+00 0.00000000e+00 
16 185.89 -1.00000000e+00 0.00000000e+00 
17 186.69 -1.00000000e+00 0.00000000e+00 
18 187.49 -1.00000000e+00 0.00000000e+00 
19 188.28 -1.00000000e+00 0.00000000e+00 
20 189.08 -1.00000000e+00 0.00000000e+00 
21 189.88 -1.00000000e+00 0.00000000e+00 
22 190.67 -1.00000000e+00 0.00000000e+00 
23 191.47 -1.00000000e+00 0.00000000e+00 
24 192.27 -1.00000000e+00 0.00000000e+00 
25 193.07 -1.00000000e+00 0.00000000e+00 
26 193.86 -1.00000000e+00 0.00000000e+00 
27 194.66 -1.00000000e+00 0.00000000e+00 
28 195.46 -1.00000000e+00 0.00000000e+00 
29 196.26 -1.00000000e+00 0.00000000e+00 
30 197.05 -1.00000000e+00 0.00000000e+00 
31 197.85 -1.00000000e+00 0.00000000e+00 
32 198.65 -1.00000000e+00 0.00000000e+00 
33 199.45 -1.00000000e+00 0.00000000e+00 
34 200.25 -1.00000000e+00 0.00000000e+00 
35 201.05 -1.00000000e+00 0.00000000e+00 
36 201.85 -1.00000000e+00 0.00000000e+00 
37 202.65 -1.00000000e+00 0.00000000e+00 
38 203.44 -1.00000000e+00 0.00000000e+00 
39 204.24 -1.00000000e+00 0.00000000e+00 
40 205.04 -1.00000000e+00 0.00000000e+00 
41 205.84 -1.00000000e+00 0.00000000e+00 
42 206.64 -1.00000000e+00 0.00000000e+00 
43 207.44 -1.00000000e+00 0.00000000e+00 
44 208.24 -1.00000000e+00 0.00000000e+00 
45 209.04 -1.00000000e+00 0.00000000e+00 
46 209.84 -1.00000000e+00 0.00000000e+00 
47 210.64 -1.00000000e+00 0.00000000e+00 
48 211.44 -1.00000000e+00 -1.00000000e+00 
49 212.24 -1.00000000e+00 -1.00000000e+00 
50 213.04 8.27624516e+35 -1.00000000e+00 
51 213.85 9.93773103e+34 -1.00000000e+00 
52 214.65 1.24713855e+34 -1.00000000e+00 
53 215.45 1.51100779e+33 -1.00000000e+00 
54 216.25 1.81487290e+32 -1.00000000e+00 
55 217.05 2.26446724e+31 -1.00000000e+00 
56 217.85 2.77658647e+30 -1.00000000e+00 
57 218.65 3.43677890e+29 -1.00000000e+00 
58 219.46 4.28013906e+28 -1.00000000e+00 
59 220.26 5.26079536e+27 -1.00000000e+00 
60 221.06 6.54256354e+26 -1.00000000e+00 
61 221.86 8.15768980e+25 -1.00000000e+00 
62 222.66 1.01031226e+25 -1.00000000e+00 
63 223.47 1.25375184e+24 -1.00000000e+00 
64 224.27 1.54795979e+23 -1.00000000e+00 
65 225.07 1.91030109e+22 -1.00000000e+00 
66 225.87 2.46431455e+21 -1.00000000e+00 
67 226.68 3.11868961e+20 -1.00000000e+00 
68 227.48 4.05953019e+19 -1.00000000e+00 
69 228.28 6.14473123e+18 4.88149628e+17 
70 229.08 1.31622784e+18 1.06638583e+17 
71 229.89 5.30310023e+17 4.29663890e+16 
72 230.69 5.02013335e+17 3.82317201e+16 
73 231.49 1.24323374e+18 1.04235145e+17 
74 232.30 6.44666372e+18 5.57387455e+17 
75 233.10 5.22246209e+19 -1.00000000e+00 
76 233.90 5.13861914e+20 -1.00000000e+00 
77 234.71 5.53818399e+21 -1.00000000e+00 
78 235.51 6.23101606e+22 -1.00000000e+00 
79 236.32 7.20238495e+23 -1.00000000e+00 
80 237.12 8.27330880e+24 -1.00000000e+00 
81 237.92 9.84609077e+25 -1.00000000e+00 
82 238.73 1.16111060e+27 -1.00000000e+00 
83 239.53 1.38005942e+28 -1.00000000e+00 
84 240.34 1.58073974e+29 -1.00000000e+00 
85 241.14 1.70478896e+30 -1.00000000e+00 
86 241.94 1.64960987e+31 -1.00000000e+00 
87 242.75 1.49456752e+32 -1.00000000e+00 
88 243.55 1.31981445e+33 -1.00000000e+00 
89 244.36 1.00545923e+34 -1.00000000e+00 
90 245.16 6.98725347e+34 -1.00000000e+00 
91 245.97 4.39544971e+35 -1.00000000e+00 
92 246.77 -1.00000000e+00 -1.00000000e+00 
93 247.58 -1.00000000e+00 -1.00000000e+00 
94 248.38 -1.00000000e+00 -1.00000000e+00 
95 249.19 -1.00000000e+00 -1.00000000e+00 
96 249.99 -1.00000000e+00 0.00000000e+00 
97 250.80 -1.00000000e+00 0.00000000e+00 
98 251.60 -1.00000000e+00 0.00000000e+00 
99 252.41 -1.00000000e+00 0.00000000e+00 
100 253.21 -1.00000000e+00 0.00000000e+00 
101 254.02 -1.00000000e+00 0.00000000e+00 
102 254.82 -1.00000000e+00 0.00000000e+00 
103 255.63 -1.00000000e+00 0.00000000e+00 
104 256.44 -1.00000000e+00 0.00000000e+00 
105 257.24 -1.00000000e+00 0.00000000e+00 
106 258.05 -1.00000000e+00 0.00000000e+00 
107 258.85 -1.00000000e+00 0.00000000e+00 
108 259.66 -1.00000000e+00 0.00000000e+00 
109 260.46 -1.00000000e+00 -1.00000000e+00 
110 261.27 -1.00000000e+00 -1.00000000e+00 
111 262.08 -1.00000000e+00 -1.00000000e+00 
112 262.88 1.08472276e+36 -1.00000000e+00 
113 263.69 1.65390423e+35 -1.00000000e+00 
114 264.49 2.63392392e+34 -1.00000000e+00 
115 265.30 3.58762420e+33 -1.00000000e+00 
116 266.11 3.85611320e+32 -1.00000000e+00 
117 266.91 3.74173881e+31 -1.00000000e+00 
118 267.72 3.13602097e+30 -1.00000000e+00 
119 268.53 2.16499933e+29 -1.00000000e+00 
120 269.33 1.70377705e+28 -1.00000000e+00 
121 270.14 1.51255229e+27 -1.00000000e+00 
122 270.95 1.28181250e+26 -1.00000000e+00 
123 271.75 9.67843361e+24 -1.00000000e+00 
124 272.56 6.71017682e+23 -1.00000000e+00 
125 273.37 4.13896343e+22 -1.00000000e+00 
126 274.17 2.50057612e+21 -1.00000000e+00 
127 274.98 1.80388077e+20 -1.00000000e+00 
128 275.79 1.40914620e+19 1.12575457e+18 
129 276.59 1.26037073e+18 9.37047274e+16 
130 277.40 1.14421803e+17 8.81653277e+15 
131 278.21 1.01728147e+16 6.86460194e+14 
132 279.01 9.66328718e+14 5.84811891e+13 
133 279.82 9.66028406e+13 6.47747548e+12 
134 280.63 9.76551097e+12 6.12201726e+11 
135 281.43 1.02031609e+12 5.96702863e+10 
136 282.24 1.31252470e+11 6.92380928e+09 
137 283.05 1.99229030e+10 1.08015770e+09 
138 283.86 3.32417997e+09 1.75534960e+08 
139 284.66 5.69981056e+08 3.00178900e+07 
140 285.47 1.05751608e+08 5.41197650e+06 
141 286.28 2.42325300e+07 1.31729675e+06 
142 287.09 5.99202000e+06 2.74008750e+05 
143 287.89 1.43527313e+06 7.21381641e+04 
144 288.70 4.03749344e+05 1.93994199e+04 
145 289.51 1.27275688e+05 5.58596777e+03 
146 290.32 4.48087617e+04 2.16348413e+03 
147 291.12 1.61127725e+04 7.52212341e+02 
148 291.93 6.22918408e+03 2.85951904e+02 
149 292.74 2.62245874e+03 1.14287506e+02 
150 293.55 1.21555396e+03 5.37771606e+01 
151 294.35 5.93328674e+02 2.28326626e+01 
152 295.16 3.07254639e+02 1.33998318e+01 
153 295.97 1.68541824e+02 6.87219381e+00 
154 296.78 9.66490173e+01 4.03682947e+00 
155 297.58 5.71264877e+01 2.44427896e+00 
156 298.39 3.65958138e+01 1.52982819e+00 
157 299.20 2.46969414e+01 9.88372147e-01 
158 300.01 1.72952156e+01 7.51860499e-01 
159 300.81 1.25090866e+01 5.06951213e-01 
160 301.62 9.35040951e+00 3.75811011e-01 
161 302.43 7.23176527e+00 2.94561893e-01 
162 303.24 5.64402056e+00 2.38184705e-01 
163 304.04 4.67321396e+00 1.84552297e-01 
164 304.85 3.82400012e+00 1.54254079e-01 
165 305.66 3.22760057e+00 1.31455645e-01 
166 306.47 2.74674034e+00 1.18611440e-01 
167 307.28 2.42997813e+00 8.98649618e-02 
168 308.08 2.12160015e+00 9.23841745e-02 
169 308.89 1.95950389e+00 7.46778101e-02 
170 309.70 1.78064597e+00 6.85889795e-02 
171 310.51 1.60017455e+00 6.64694831e-02 
172 311.32 1.50782967e+00 5.47825061e-02 
173 312.12 1.38066649e+00 5.50580695e-02 
174 312.93 1.30748522e+00 4.38515283e-02 
175 313.74 1.24818599e+00 5.09289503e-02 
176 314.55 1.17268705e+00 4.74643335e-02 
177 315.36 1.14843309e+00 4.32946198e-02 
178 316.16 1.12557280e+00 4.59928587e-02 
179 316.97 1.10040653e+00 4.04537432e-02 
180 317.78 1.08789456e+00 4.21022773e-02 
181 318.59 1.05728257e+00 4.05413322e-02 
182 319.40 1.05402172e+00 3.78851257e-02 
183 320.20 1.05343139e+00 3.46611552e-02 
184 321.01 1.04678416e+00 3.68492417e-02 
185 321.82 1.05523300e+00 3.67680676e-02 
186 322.63 1.06180537e+00 3.72371823e-02 
187 323.43 1.04630756e+00 3.07902042e-02 
188 324.24 1.05376756e+00 3.49164344e-02 
189 325.05 1.07400274e+00 3.11787389e-02 
190 325.86 1.09826326e+00 3.20960991e-02 
191 326.67 1.09906912e+00 3.20447385e-02 
192 327.48 1.12019348e+00 3.37272584e-02 
193 328.28 1.15007675e+00 2.96422951e-02 
194 329.09 1.16797101e+00 3.29588912e-02 
195 329.90 1.20553875e+00 3.31979953e-02 
196 330.71 1.27671111e+00 3.23446877e-02 
197 331.52 1.33808053e+00 3.26762162e-02 
198 332.32 1.50374365e+00 3.23448889e-02 
199 333.13 1.77828693e+00 3.20143476e-02 
200 333.94 2.26752591e+00 3.45766544e-02 
201 334.75 3.04287577e+00 4.24783044e-02 
202 335.55 4.09371805e+00 4.49420586e-02 
203 336.36 5.58230543e+00 4.40582559e-02 
204 337.17 7.91026974e+00 5.23289368e-02 
205 337.98 1.11232758e+01 6.12387918e-02 
206 338.79 1.48821239e+01 7.68837631e-02 
207 339.60 1.91088619e+01 8.42385739e-02 
208 340.40 2.28644981e+01 1.00795582e-01 
209 341.21 2.60202503e+01 9.17271078e-02 
210 342.02 2.97438221e+01 1.04744069e-01 
211 342.83 3.30564003e+01 1.14376210e-01 
212 343.63 3.38471489e+01 1.09141946e-01 
213 344.44 3.51307449e+01 1.10477403e-01 
214 345.25 3.89936600e+01 1.20976619e-01 
215 346.06 4.26097527e+01 1.15915045e-01 
216 346.87 4.49386826e+01 1.18161522e-01 
217 347.67 4.66120300e+01 1.22286044e-01 
218 348.48 4.81963501e+01 1.23833172e-01 
219 349.29 5.10915184e+01 1.40886679e-01 
220 350.10 5.60410728e+01 1.37429431e-01 
221 350.90 5.92928276e+01 1.42322689e-01 
222 351.71 5.93873787e+01 1.35667801e-01 
223 352.52 6.05578575e+01 1.31610796e-01 
224 353.33 6.58967285e+01 1.48065925e-01 
225 354.14 7.24529877e+01 1.62898153e-01 
226 354.94 7.52639313e+01 1.64380834e-01 
227 355.75 7.37894669e+01 1.47706360e-01 
228 356.56 6.94173126e+01 1.52350962e-01 
229 357.37 6.52007599e+01 1.49125427e-01 
230 358.18 6.44675522e+01 1.49424016e-01 
231 358.98 7.24503250e+01 1.46205306e-01 
232 359.79 8.33026352e+01 1.71549976e-01 
233 360.60 8.45409088e+01 1.72186777e-01 
234 361.41 8.33159485e+01 1.66413262e-01 
235 362.21 8.78296890e+01 1.55987144e-01 
236 363.02 9.29428864e+01 1.61831290e-01 
237 363.83 9.60063553e+01 1.83723047e-01 
238 364.64 1.00834709e+02 1.99559048e-01 
239 365.44 1.09879631e+02 2.00142384e-01 
240 366.25 1.17604507e+02 1.94786042e-01 
241 367.06 1.18563629e+02 2.02211052e-01 
242 367.87 1.16766006e+02 1.92434922e-01 
243 368.67 1.18616776e+02 2.08238021e-01 
244 369.48 1.23678978e+02 2.06762999e-01 
245 370.29 1.24830269e+02 2.00760290e-01 
246 371.10 1.23418076e+02 1.88639328e-01 
247 371.90 1.20280518e+02 1.92373216e-01 
248 372.71 1.13613335e+02 1.82590052e-01 
249 373.52 1.07446548e+02 1.81102157e-01 
250 374.33 1.07146301e+02 1.90438971e-01 
251 375.13 1.14768066e+02 1.82069004e-01 
252 375.94 1.25049431e+02 1.94943041e-01 
253 376.75 1.36298599e+02 2.00348824e-01 
254 377.56 1.48903854e+02 2.34241009e-01 
255 378.36 1.52137299e+02 2.33159259e-01 
256 379.17 1.44469513e+02 2.07473934e-01 
257 379.98 1.41420959e+02 2.18306139e-01 
258 380.78 1.40904770e+02 2.10630268e-01 
259 381.59 1.28379532e+02 1.95416078e-01 
260 382.40 1.09421028e+02 1.85763150e-01 
261 383.20 1.00997444e+02 1.79663479e-01 
262 384.01 1.09733521e+02 1.88190654e-01 
263 384.82 1.23863121e+02 2.02914611e-01 
264 385.63 1.29730789e+02 2.09568560e-01 
265 386.43 1.30814499e+02 1.99746698e-01 
266 387.24 1.31604752e+02 2.19619587e-01 
267 388.05 1.33767303e+02 2.13321328e-01 
268 388.85 1.41787308e+02 2.04787135e-01 
269 389.66 1.54743744e+02 2.12972119e-01 
270 390.47 1.64963470e+02 2.42432073e-01 
271 391.27 1.65212555e+02 2.39850238e-01 
272 392.08 1.46989502e+02 2.11437196e-01 
273 392.89 1.19590622e+02 1.88661903e-01 
274 393.69 1.13785118e+02 1.78348809e-01 
275 394.50 1.35440796e+02 1.97685629e-01 
276 395.31 1.50630127e+02 2.10728422e-01 
277 396.11 1.40456406e+02 1.94553807e-01 
278 396.92 1.33693359e+02 2.03739598e-01 
279 397.73 1.57886276e+02 2.17179760e-01 
280 398.53 1.94140457e+02 2.55987823e-01 
281 399.34 2.17133072e+02 2.62717158e-01 
282 400.15 2.28280029e+02 2.77669489e-01 
283 400.95 2.36055588e+02 2.73539692e-01 
284 401.76 2.42164459e+02 2.86633402e-01 
285 402.57 2.43864380e+02 2.80959964e-01 
286 403.37 2.42369278e+02 2.84952044e-01 
287 404.18 2.41189774e+02 2.67409205e-01 
288 404.99 2.40066437e+02 2.73164451e-01 
289 405.79 2.38917984e+02 2.73096621e-01 
290 406.60 2.39853622e+02 2.81509638e-01 
291 407.40 2.45972794e+02 2.82338589e-01 
292 408.21 2.55079803e+02 2.88861811e-01 
293 409.02 2.58401978e+02 3.18916708e-01 
294 409.82 2.55521500e+02 3.01775694e-01 
295 410.63 2.58640198e+02 2.88792700e-01 
296 411.43 2.69425690e+02 3.14524293e-01 
297 412.24 2.76609985e+02 3.37638497e-01 
298 413.05 2.77347565e+02 3.28514576e-01 
299 413.85 2.77022186e+02 3.19574088e-01 
300 414.66 2.77351379e+02 2.83225566e-01 
301 415.46 2.78173737e+02 3.01229477e-01 
302 416.27 2.77925659e+02 3.14760894e-01 
303 417.08 2.74221985e+02 3.07578385e-01 
304 417.88 2.69378815e+02 3.37195903e-01 
305 418.69 2.67153137e+02 3.20726216e-01 
306 419.49 2.67881561e+02 2.87660748e-01 
307 420.30 2.71368195e+02 3.34709972e-01 
308 421.11 2.74285614e+02 3.00093085e-01 
309 421.91 2.72183014e+02 3.03377628e-01 
310 422.72 2.68028961e+02 3.00884902e-01 
311 423.52 2.68080994e+02 3.01683277e-01 
312 424.33 2.71363525e+02 3.09438586e-01 
313 425.13 2.73654114e+02 2.89598495e-01 
314 425.94 2.74136200e+02 3.20260108e-01 
315 426.74 2.74252808e+02 2.76500016e-01 
316 427.55 2.74272430e+02 2.99703509e-01 
317 428.36 2.71030151e+02 3.25841904e-01 
318 429.16 2.60829498e+02 3.20846289e-01 
319 429.96 2.50691391e+02 3.05364519e-01 
320 430.77 2.58558746e+02 3.01180333e-01 
321 431.58 2.86089081e+02 3.37244242e-01 
322 432.38 3.14525513e+02 3.27778459e-01 
323 433.19 3.28782227e+02 3.67593139e-01 
324 433.99 3.37106445e+02 3.72272253e-01 
325 434.80 3.51470856e+02 3.56865525e-01 
326 435.60 3.70884399e+02 3.99308830e-01 
327 436.41 3.84061035e+02 4.11770076e-01 
328 437.21 3.84691071e+02 4.10037607e-01 
329 438.02 3.80464935e+02 3.51223767e-01 
330 438.82 3.83065979e+02 3.66489202e-01 
331 439.63 3.94729828e+02 3.88808727e-01 
332 440.43 4.11924866e+02 4.05161798e-01 
333 441.24 4.29693268e+02 4.26729292e-01 
334 442.04 4.45445007e+02 4.24370259e-01 
335 442.85 4.56684357e+02 4.08983201e-01 
336 443.65 4.63324524e+02 4.10637885e-01 
337 444.45 4.65693451e+02 4.58132476e-01 
338 445.26 4.65596619e+02 4.17114913e-01 
339 446.06 4.69612671e+02 4.53162551e-01 
340 446.87 4.80446930e+02 4.11463290e-01 
341 447.67 4.94239166e+02 4.55827087e-01 
342 448.48 5.05122772e+02 4.30771500e-01 
343 449.28 5.15333069e+02 4.55605209e-01 
344 450.09 5.26371643e+02 4.61459517e-01 
345 450.89 5.32296753e+02 4.68199998e-01 
346 451.70 5.27538513e+02 4.51208383e-01 
347 452.50 5.17708557e+02 4.69307095e-01 
348 453.30 5.12882385e+02 4.53526258e-01 
349 454.11 5.15710327e+02 4.44738209e-01 
350 454.91 5.23860168e+02 4.47851539e-01 
351 455.72 5.32658630e+02 4.60702598e-01 
352 456.52 5.39634521e+02 4.55154210e-01 
353 457.32 5.42507751e+02 4.86151636e-01 
354 458.13 5.41264038e+02 4.83812362e-01 
355 458.93 5.40377686e+02 5.04755378e-01 
356 459.74 5.43770569e+02 4.82775807e-01 
357 460.54 5.51005249e+02 4.86039370e-01 
358 461.34 5.58943237e+02 5.03318787e-01 
359 462.15 5.64073853e+02 4.93987352e-01 
360 462.95 5.63872864e+02 4.70997065e-01 
361 463.76 5.60099915e+02 5.06879866e-01 
362 464.56 5.56243042e+02 4.77789581e-01 
363 465.36 5.53567871e+02 5.13560116e-01 
364 466.17 5.52407837e+02 4.74229097e-01 
365 466.97 5.53523621e+02 5.18951595e-01 
366 467.77 5.56378296e+02 4.62004453e-01 
367 468.58 5.59428528e+02 4.69386965e-01 
368 469.38 5.60063354e+02 4.82102990e-01 
369 470.18 5.61106323e+02 4.98846024e-01 
370 470.99 5.66731812e+02 5.17264009e-01 
371 471.79 5.75159058e+02 4.70604360e-01 
372 472.59 5.82677002e+02 5.19939959e-01 
373 473.40 5.88076233e+02 5.60502291e-01 
374 474.20 5.91475952e+02 5.08396983e-01 
375 475.00 5.93719910e+02 4.84151036e-01 
376 475.81 5.95854980e+02 5.44963658e-01 
377 476.61 5.99686401e+02 4.91210371e-01 
378 477.41 6.05771667e+02 5.01449347e-01 
379 478.21 6.11781250e+02 4.58819270e-01 
380 479.02 6.15937195e+02 5.21875024e-01 
381 479.82 6.18341248e+02 5.25477529e-01 
382 480.62 6.21183838e+02 5.47695041e-01 
383 481.43 6.22475281e+02 5.18243074e-01 
384 482.23 6.21361023e+02 5.31699836e-01 
385 483.03 6.16869568e+02 5.13128459e-01 
386 483.84 6.06481445e+02 5.13470531e-01 
387 484.64 5.86867126e+02 5.06811619e-01 
388 485.44 5.64056702e+02 5.05736530e-01 
389 486.24 5.51358398e+02 4.69467342e-01 
390 487.04 5.54508545e+02 4.63188231e-01 
391 487.85 5.70486023e+02 4.72987741e-01 
392 488.65 5.89542358e+02 5.26812077e-01 
393 489.45 6.02354126e+02 5.25508642e-01 
394 490.26 6.06530273e+02 4.94692862e-01 
395 491.06 6.04602661e+02 4.81038749e-01 
396 491.86 6.00912781e+02 5.07559597e-01 
397 492.66 6.01023315e+02 4.82264489e-01 
398 493.46 6.07174805e+02 5.01376629e-01 
399 494.27 6.14310547e+02 4.92230624e-01 
400 495.07 6.18242432e+02 5.02729833e-01 
401 495.87 6.19966492e+02 5.13841927e-01 
402 496.67 6.17567078e+02 4.80747849e-01 
403 497.48 6.13204956e+02 5.22737861e-01 
404 498.28 6.08898560e+02 5.28873980e-01 
405 499.08 6.03210327e+02 5.12054384e-01 
406 499.88 5.96980408e+02 5.03194213e-01 
407 500.68 5.91795959e+02 5.17524481e-01 
408 501.48 5.89405212e+02 5.18997192e-01 
409 502.29 5.91460632e+02 5.23163974e-01 
410 503.09 5.95655334e+02 5.32463014e-01 
411 503.89 6.01391907e+02 5.17069221e-01 
412 504.69 6.07911194e+02 5.08488834e-01 
413 505.49 6.12767883e+02 5.01587570e-01 
414 506.29 6.13825928e+02 5.35522461e-01 
415 507.09 6.11195129e+02 4.78325784e-01 
416 507.90 6.08059143e+02 4.61988091e-01 
417 508.70 6.06918091e+02 4.64647204e-01 
418 509.50 6.07719971e+02 5.07241130e-01 
419 510.30 6.09105469e+02 4.90967631e-01 
420 511.10 6.08106873e+02 4.88241732e-01 
421 511.90 6.04100586e+02 4.95757550e-01 
422 512.71 5.97694702e+02 5.00364244e-01 
423 513.51 5.90670044e+02 4.86271858e-01 
424 514.31 5.84772339e+02 4.86111850e-01 
425 515.11 5.75460144e+02 5.34091830e-01 
426 515.91 5.60591553e+02 4.72104192e-01 
427 516.71 5.45780396e+02 5.13822079e-01 
428 517.51 5.37355225e+02 4.90596294e-01 
429 518.31 5.40960449e+02 4.61129069e-01 
430 519.11 5.53986328e+02 4.39693928e-01 
431 519.91 5.67358582e+02 4.78256494e-01 
432 520.71 5.77320313e+02 4.75562632e-01 
433 521.52 5.81526917e+02 4.74084765e-01 
434 522.32 5.83992676e+02 4.96728927e-01 
435 523.12 5.88087646e+02 5.04046440e-01 
436 523.92 5.91957703e+02 4.95126665e-01 
437 524.72 5.91299561e+02 5.03542364e-01 
438 525.52 5.82933838e+02 4.74959403e-01 
439 526.32 5.73182922e+02 4.90201533e-01 
440 527.12 5.71408997e+02 4.80383426e-01 
441 527.92 5.78870544e+02 4.44392920e-01 
442 528.72 5.91702271e+02 4.97578800e-01 
443 529.52 6.03064697e+02 5.23648739e-01 
444 530.32 6.07993958e+02 4.94765431e-01 
445 531.12 6.05633728e+02 5.06583333e-01 
446 531.92 5.99937073e+02 5.28753996e-01 
447 532.72 5.94724609e+02 5.58253765e-01 
448 533.52 5.94031189e+02 5.13425708e-01 
449 534.32 5.98383911e+02 5.30060887e-01 
450 535.12 6.02832153e+02 5.36205232e-01 
451 535.92 6.03532715e+02 5.14355838e-01 
452 536.72 6.01915405e+02 5.12820542e-01 
453 537.52 5.98913208e+02 4.70481873e-01 
454 538.32 5.94568115e+02 5.20332932e-01 
455 539.12 5.89434143e+02 5.19082189e-01 
456 539.92 5.84899719e+02 4.90603596e-01 
457 540.72 5.83300903e+02 4.79077429e-01 
458 541.52 5.85116760e+02 4.88089979e-01 
459 542.32 5.89614380e+02 5.01433015e-01 
460 543.12 5.94064575e+02 4.98300701e-01 
461 543.92 5.97119080e+02 5.06105602e-01 
462 544.72 5.99088257e+02 5.35145819e-01 
463 545.52 5.98832764e+02 5.03035724e-01 
464 546.32 5.96076599e+02 5.44640362e-01 
465 547.12 5.92830139e+02 5.49897015e-01 
466 547.91 5.90868347e+02 5.16944468e-01 
467 548.71 5.90310120e+02 5.01480877e-01 
