% C0 (TOA Count Rate, /ms) for 4STAR NIR spectrometer (512 channels) derived from (SEE Original files for sources) and recorded on 2017-08-26 12:56:50.
% Langley at MLO and airborne Data outside 2.0x the STD of 501 nm Langley residuals were screened out. 
% Including high Altitude rate spectra, matched to splined stratospheric AOD measured at MLO.
% Averages of c0 from multiple days including: , MLO -av-g-, infl-ig-ht, infl-ig-ht, high- a-lt, high- a-lt. See the list of files below
% 20170605_NIR_C0_refined_Langley_MLO_May2017_averages.dat
% 20170807_NIR_C0_refined_langley_4STARpm.dat
% 20170807_NIR_C0_refined_langley_4STAR_subset_pm.dat
% 20170809_NIR_C0_refined_high_alt_low_m_frompolyfit.dat
% 20170815_NIR_C0_refined_high_alt_low_m_frompolyfit.dat
Pix Wavelength C0 C0err
511 949.79 4.94822164e+00 4.30580209e-01 
510 949.79 5.14229812e+00 3.48510616e-01 
509 951.68 5.50764963e+00 3.40280841e-01 
508 953.57 5.56314446e+00 3.28561141e-01 
507 955.46 6.00857622e+00 3.23417875e-01 
506 957.34 6.11405770e+00 3.05658539e-01 
505 959.22 6.57579011e+00 2.78311841e-01 
504 961.10 6.66902901e+00 2.43246613e-01 
503 962.98 7.10003052e+00 2.01613861e-01 
502 964.85 7.10626260e+00 1.57412492e-01 
501 966.72 7.60915203e+00 1.06568013e-01 
500 968.59 7.65717303e+00 7.60966095e-02 
499 970.45 8.05605685e+00 6.71677638e-02 
498 972.32 8.00903223e+00 8.32816590e-02 
497 974.18 8.34927333e+00 9.40326913e-02 
496 976.04 8.28505216e+00 9.29426912e-02 
495 977.89 8.62564570e+00 7.02202329e-02 
494 979.74 8.54330714e+00 4.71590156e-02 
493 981.59 8.83476226e+00 3.63579051e-02 
492 983.44 8.72014328e+00 4.08831084e-02 
491 985.29 8.98337151e+00 4.68223953e-02 
490 987.13 8.78483772e+00 5.00728252e-02 
489 988.97 9.03409490e+00 5.09816368e-02 
488 990.81 8.84712013e+00 5.34030433e-02 
487 992.65 9.02564847e+00 5.87459050e-02 
486 994.48 8.83491704e+00 5.15485738e-02 
485 996.31 8.97522761e+00 5.28928967e-02 
484 998.14 8.71827494e+00 5.33784477e-02 
483 999.97 8.87571106e+00 5.15146934e-02 
482 1001.79 8.58937899e+00 5.42184644e-02 
481 1003.62 8.67291225e+00 5.37621618e-02 
480 1005.44 8.46065763e+00 5.09385991e-02 
479 1007.25 8.70728909e+00 5.38739408e-02 
478 1009.07 8.52384520e+00 4.84717064e-02 
477 1010.88 8.68135481e+00 5.63989926e-02 
476 1012.69 8.42650045e+00 5.33517726e-02 
475 1014.50 8.54960451e+00 5.35890060e-02 
474 1016.31 8.33952809e+00 4.97329976e-02 
473 1018.11 8.48589500e+00 5.64339884e-02 
472 1019.91 8.24766932e+00 5.61656671e-02 
471 1021.71 8.40230986e+00 5.61097659e-02 
470 1023.51 8.18307718e+00 5.33711049e-02 
469 1025.30 8.34831002e+00 6.15829085e-02 
468 1027.09 8.23398081e+00 6.95423884e-02 
467 1028.88 8.40222181e+00 6.92656195e-02 
466 1030.67 8.23874191e+00 6.98835078e-02 
465 1032.46 8.40628789e+00 7.97360214e-02 
464 1034.24 8.25038230e+00 7.91278767e-02 
463 1036.02 8.43200086e+00 8.10832789e-02 
462 1037.80 8.32373743e+00 6.91350964e-02 
461 1039.58 8.52236389e+00 8.05064079e-02 
460 1041.35 8.38778416e+00 7.37019344e-02 
459 1043.12 8.54799992e+00 8.60982306e-02 
458 1044.89 8.46023922e+00 8.47295270e-02 
457 1046.66 8.66753216e+00 8.64229935e-02 
456 1048.43 8.59337336e+00 8.71471230e-02 
455 1050.19 8.81583983e+00 8.65981886e-02 
454 1051.95 8.66519788e+00 7.56570543e-02 
453 1053.71 8.90332235e+00 8.06768567e-02 
452 1055.47 8.73153019e+00 8.40834579e-02 
451 1057.23 8.86429037e+00 8.25211000e-02 
450 1058.98 8.71812153e+00 7.97672748e-02 
449 1060.73 8.91077398e+00 8.60751164e-02 
448 1062.48 8.71525269e+00 9.01691034e-02 
447 1064.23 8.85357742e+00 9.00868176e-02 
446 1065.97 8.54683218e+00 8.86172468e-02 
445 1067.71 8.58561878e+00 7.84271128e-02 
444 1069.46 8.39082231e+00 7.09744613e-02 
443 1071.19 8.50161063e+00 7.97472496e-02 
442 1072.93 8.33626671e+00 7.72412359e-02 
441 1074.67 8.43384828e+00 7.88246484e-02 
440 1076.40 8.24429547e+00 6.91356668e-02 
439 1078.13 8.28999554e+00 6.36681681e-02 
438 1079.86 8.06305869e+00 6.05284545e-02 
437 1081.58 8.14876445e+00 5.62646832e-02 
436 1083.31 8.02592969e+00 4.89266920e-02 
435 1085.03 8.19187542e+00 5.47273105e-02 
434 1086.75 8.12881740e+00 4.75277525e-02 
433 1088.47 8.27656514e+00 4.94575336e-02 
432 1090.19 8.16376921e+00 4.89730721e-02 
431 1091.90 8.27083139e+00 4.42962500e-02 
430 1093.61 8.13144120e+00 3.82003330e-02 
429 1095.33 8.33090750e+00 4.61204531e-02 
428 1097.03 8.35999570e+00 5.36777642e-02 
427 1098.74 8.58821874e+00 7.12388442e-02 
426 1100.45 8.57963119e+00 8.93609284e-02 
425 1102.15 8.85966946e+00 9.71168896e-02 
424 1103.85 8.83811792e+00 1.14574476e-01 
423 1105.55 9.06485650e+00 1.43411121e-01 
422 1107.25 9.00121385e+00 1.87228678e-01 
421 1108.94 9.13966007e+00 2.52343891e-01 
420 1110.64 8.92031479e+00 3.69948763e-01 
419 1112.33 8.92521650e+00 5.61775779e-01 
418 1114.02 8.54549597e+00 7.64246373e-01 
417 1115.70 8.47970268e+00 9.08356892e-01 
416 1117.39 8.21002561e+00 9.91487599e-01 
415 1119.07 8.18805109e+00 1.07501678e+00 
414 1120.76 8.03358841e+00 1.12169829e+00 
413 1122.44 8.06937937e+00 1.19355826e+00 
412 1124.12 7.98192395e+00 1.17616796e+00 
411 1125.79 8.16271545e+00 1.13713423e+00 
410 1127.47 8.26347423e+00 1.04068514e+00 
409 1129.14 8.55734288e+00 9.21159556e-01 
408 1130.81 8.22168751e+00 1.02923490e+00 
407 1132.48 8.13453107e+00 1.13186318e+00 
406 1134.15 7.99564660e+00 1.11087205e+00 
405 1135.81 8.31111940e+00 9.53417955e-01 
404 1137.48 8.72019560e+00 6.87161252e-01 
403 1139.14 8.97374486e+00 6.06951378e-01 
402 1140.80 8.72852111e+00 6.75733265e-01 
401 1142.46 8.67881866e+00 8.26303391e-01 
400 1144.12 8.42897158e+00 9.30221627e-01 
399 1145.77 8.46571020e+00 9.71870704e-01 
398 1147.43 8.43443052e+00 9.04926900e-01 
397 1149.08 8.61878096e+00 8.09969808e-01 
396 1150.73 8.57903880e+00 7.67807209e-01 
395 1152.38 8.81477656e+00 6.93800720e-01 
394 1154.02 8.78200873e+00 6.06259074e-01 
393 1155.67 9.01469917e+00 5.13754697e-01 
392 1157.31 8.90317818e+00 4.28294266e-01 
391 1158.95 9.01287591e+00 3.56694718e-01 
390 1160.59 8.95453606e+00 2.83150893e-01 
389 1162.23 9.10743049e+00 2.28175072e-01 
388 1163.87 9.02275558e+00 1.82361806e-01 
387 1165.50 9.10461108e+00 1.64959294e-01 
386 1167.13 8.99905093e+00 1.43502682e-01 
385 1168.76 9.09344711e+00 1.04872813e-01 
384 1170.39 8.96471812e+00 1.12321152e-01 
383 1172.02 8.96712999e+00 1.23483935e-01 
382 1173.65 8.79697975e+00 1.43680253e-01 
381 1175.27 8.78560575e+00 1.39263869e-01 
380 1176.90 8.67233175e+00 1.17036780e-01 
379 1178.52 8.64411851e+00 1.55088958e-01 
378 1180.14 8.43716065e+00 1.47908313e-01 
377 1181.75 8.41591543e+00 1.44672461e-01 
376 1183.37 8.21652069e+00 1.30272955e-01 
375 1184.99 8.25341137e+00 1.40574522e-01 
374 1186.60 8.13736903e+00 1.31365781e-01 
373 1188.21 8.11913107e+00 1.19040162e-01 
372 1189.82 8.03176438e+00 8.52745268e-02 
371 1191.43 8.21029059e+00 6.38340815e-02 
370 1193.04 8.09456704e+00 6.27854470e-02 
369 1194.64 8.06437100e+00 6.16900337e-02 
368 1196.24 7.87457425e+00 7.72719888e-02 
367 1197.85 7.92722707e+00 9.28851942e-02 
366 1199.45 7.79848903e+00 9.53733774e-02 
365 1201.05 7.88168872e+00 1.02404814e-01 
364 1202.64 7.82173217e+00 8.57188754e-02 
363 1204.24 7.86132868e+00 7.45573872e-02 
362 1205.83 7.78099756e+00 4.84007962e-02 
361 1207.43 7.78349222e+00 4.28647538e-02 
360 1209.02 7.73374299e+00 4.90044660e-02 
359 1210.61 7.86362492e+00 4.35898496e-02 
358 1212.19 7.84679041e+00 3.41800336e-02 
357 1213.78 7.98917901e+00 2.23892078e-02 
356 1215.37 7.91500621e+00 1.84249930e-02 
355 1216.95 7.97269217e+00 2.04067459e-02 
354 1218.53 7.93227708e+00 2.55143645e-02 
353 1220.11 8.00915334e+00 2.39027530e-02 
352 1221.69 7.97131103e+00 1.83810255e-02 
351 1223.27 8.01441277e+00 1.24946848e-02 
350 1224.84 8.00555425e+00 1.38000721e-02 
349 1226.42 8.06519049e+00 1.53273632e-02 
348 1227.99 8.04393301e+00 2.49716192e-02 
347 1229.56 8.16659514e+00 3.29478186e-02 
346 1231.13 8.09242916e+00 3.40706315e-02 
345 1232.70 8.15853688e+00 3.30165556e-02 
344 1234.27 8.10588760e+00 3.71260253e-02 
343 1235.84 8.10827770e+00 5.08323366e-02 
342 1237.40 8.04802548e+00 4.37178068e-02 
341 1238.96 8.03635133e+00 4.28912812e-02 
340 1240.52 7.88944125e+00 3.90443969e-02 
339 1242.08 8.01809801e+00 4.24874908e-02 
338 1243.64 7.98561538e+00 4.25606787e-02 
337 1245.20 8.02257729e+00 4.79034027e-02 
336 1246.75 7.98155873e+00 5.08363547e-02 
335 1248.31 8.04424585e+00 4.94940868e-02 
334 1249.86 7.97165680e+00 4.86983379e-02 
333 1251.41 8.00036268e+00 5.87296403e-02 
332 1252.96 7.91884890e+00 6.94844063e-02 
331 1254.51 7.93270280e+00 7.83778161e-02 
330 1256.06 7.83644341e+00 8.06534301e-02 
329 1257.61 7.79250635e+00 9.84491615e-02 
328 1259.15 7.66594143e+00 1.17231682e-01 
327 1260.69 7.61365917e+00 1.44900007e-01 
326 1262.23 7.48628372e+00 1.73945301e-01 
325 1263.77 7.45606084e+00 1.93342110e-01 
324 1265.31 7.28065326e+00 2.31263766e-01 
323 1266.85 7.30052152e+00 2.38048892e-01 
322 1268.39 7.35921982e+00 2.19710918e-01 
321 1269.92 7.48143514e+00 1.96551327e-01 
320 1271.46 7.63854686e+00 1.33519329e-01 
319 1272.99 7.70436026e+00 1.10869299e-01 
318 1274.52 7.71126587e+00 8.80655263e-02 
317 1276.05 7.78539349e+00 7.78875214e-02 
316 1277.58 7.66751733e+00 6.39185421e-02 
315 1279.10 7.52025056e+00 5.80876928e-02 
314 1280.63 7.46586149e+00 5.67610175e-02 
313 1282.15 7.45337349e+00 6.92561801e-02 
312 1283.68 7.53788439e+00 6.92137303e-02 
311 1285.20 7.70451676e+00 6.80518629e-02 
310 1286.72 7.65207424e+00 6.23214529e-02 
309 1288.24 7.67278503e+00 5.02175885e-02 
308 1289.75 7.57557607e+00 4.51785441e-02 
307 1291.27 7.59747610e+00 4.87195266e-02 
306 1292.78 7.63193129e+00 3.10278234e-02 
305 1294.30 7.65794894e+00 1.75424316e-02 
304 1295.81 7.58806197e+00 2.13053593e-02 
303 1297.32 7.57703106e+00 3.50117879e-02 
302 1298.83 7.51797586e+00 3.66917692e-02 
301 1300.34 7.46836160e+00 5.11940212e-02 
300 1301.85 7.41269383e+00 6.52111978e-02 
299 1303.35 7.37277795e+00 8.75872311e-02 
298 1304.86 7.29087505e+00 1.16664812e-01 
297 1306.36 7.27146157e+00 1.27364898e-01 
296 1307.86 7.22818001e+00 1.47745336e-01 
295 1309.36 7.15218040e+00 1.51066220e-01 
294 1310.86 7.06095179e+00 1.71366122e-01 
293 1312.36 6.98426758e+00 1.64552634e-01 
292 1313.86 6.93026201e+00 1.72400778e-01 
291 1315.36 6.92155519e+00 1.76359940e-01 
290 1316.85 6.87694063e+00 1.94730086e-01 
289 1318.34 6.86204009e+00 2.08522041e-01 
288 1319.84 6.80515469e+00 2.47167177e-01 
287 1321.33 6.81190569e+00 2.44654959e-01 
286 1322.82 6.74587649e+00 2.22137840e-01 
285 1324.30 6.71909243e+00 2.37580200e-01 
284 1325.79 6.59136662e+00 2.76613729e-01 
283 1327.28 6.46677049e+00 3.30945382e-01 
282 1328.76 6.28596386e+00 4.19036911e-01 
281 1330.25 6.21359062e+00 4.54038104e-01 
280 1331.73 6.15457048e+00 4.44486334e-01 
279 1333.21 6.16047094e+00 4.34249431e-01 
278 1334.69 6.14067600e+00 4.02907541e-01 
277 1336.17 6.09432182e+00 3.83557627e-01 
276 1337.65 6.02118161e+00 4.12864141e-01 
275 1339.12 5.94671085e+00 4.00491594e-01 
274 1340.60 5.85390232e+00 4.64078997e-01 
273 1342.07 5.73937411e+00 5.54564484e-01 
272 1343.55 5.55853577e+00 6.38357567e-01 
271 1345.02 5.20263166e+00 8.14311919e-01 
270 1346.49 4.96508132e+00 9.17818743e-01 
269 1347.96 4.70099067e+00 1.04614907e+00 
268 1349.43 4.38370926e+00 1.15603447e+00 
267 1350.89 4.09079622e+00 1.23415023e+00 
266 1352.36 3.67498552e+00 1.32787752e+00 
265 1353.82 3.39281621e+00 1.34984851e+00 
264 1355.29 3.05062199e+00 1.48391897e+00 
263 1356.75 2.90449390e+00 1.38027474e+00 
262 1358.21 2.60495878e+00 1.35700372e+00 
261 1359.67 2.32010224e+00 1.39260188e+00 
260 1361.13 2.19476347e+00 1.35877667e+00 
259 1362.59 2.14619715e+00 1.32319084e+00 
258 1364.04 2.27644920e+00 1.27112278e+00 
257 1365.50 2.26310346e+00 1.27392563e+00 
256 1366.95 2.23343362e+00 1.32358193e+00 
255 1368.41 2.14685547e+00 1.32802674e+00 
254 1369.86 2.18763074e+00 1.26834200e+00 
253 1371.31 2.32949808e+00 1.19780076e+00 
252 1372.76 2.32109930e+00 1.19488477e+00 
251 1374.21 2.44342156e+00 1.02308230e+00 
250 1375.65 2.35667676e+00 9.56310038e-01 
249 1377.10 2.13557894e+00 8.64594935e-01 
248 1378.55 1.82605211e+00 8.52347893e-01 
247 1379.99 1.57195572e+00 7.50247715e-01 
246 1381.43 1.40779122e+00 8.10701857e-01 
245 1382.87 1.45710022e+00 8.17663923e-01 
244 1384.32 1.60309349e+00 8.46663568e-01 
243 1385.75 1.81546604e+00 8.30102841e-01 
242 1387.19 2.06640989e+00 7.98897480e-01 
241 1388.63 2.12198720e+00 8.37183877e-01 
240 1390.07 2.20567608e+00 7.58054651e-01 
239 1391.50 2.18074059e+00 7.86020598e-01 
238 1392.94 1.89335201e+00 9.03375396e-01 
237 1394.37 1.99701886e+00 8.50787253e-01 
236 1395.80 2.16908906e+00 8.57221269e-01 
235 1397.23 2.10578827e+00 8.59767792e-01 
234 1398.66 2.17846649e+00 9.60819039e-01 
233 1400.09 2.34543953e+00 8.84626871e-01 
232 1401.52 2.25253591e+00 9.30229296e-01 
231 1402.94 2.41252589e+00 9.26800579e-01 
230 1404.37 2.49354596e+00 9.60415961e-01 
229 1405.79 2.45360557e+00 9.11661183e-01 
228 1407.22 2.50012863e+00 9.66581699e-01 
227 1408.64 2.65197174e+00 9.33788746e-01 
226 1410.06 2.79166858e+00 9.47845061e-01 
225 1411.48 2.82252629e+00 9.32098881e-01 
224 1412.90 2.94961828e+00 9.38492347e-01 
223 1414.32 3.05670274e+00 8.69838540e-01 
222 1415.73 3.04080489e+00 8.95509487e-01 
221 1417.15 3.08840501e+00 8.99042384e-01 
220 1418.56 3.18750839e+00 8.79753084e-01 
219 1419.98 3.15005602e+00 8.70518318e-01 
218 1421.39 3.23782853e+00 8.41458573e-01 
217 1422.80 3.36174264e+00 7.74610035e-01 
216 1424.21 3.40473925e+00 7.72191296e-01 
215 1425.62 3.39525106e+00 7.85116170e-01 
214 1427.03 3.46866480e+00 7.47803157e-01 
213 1428.44 3.33427096e+00 7.13986681e-01 
212 1429.84 3.19501805e+00 7.01339193e-01 
211 1431.25 3.16280404e+00 6.53051276e-01 
210 1432.65 3.14411772e+00 6.58116054e-01 
209 1434.06 3.18415448e+00 6.82585696e-01 
208 1435.46 3.28502523e+00 6.80926885e-01 
207 1436.86 3.30647251e+00 6.56243552e-01 
206 1438.26 3.33123668e+00 6.51707889e-01 
205 1439.66 3.34699938e+00 6.15088593e-01 
204 1441.05 3.46581420e+00 5.89377508e-01 
203 1442.45 3.40355197e+00 5.94474087e-01 
202 1443.85 3.43534454e+00 6.12309971e-01 
201 1445.24 3.51806392e+00 5.79377768e-01 
200 1446.64 3.56932035e+00 5.92018400e-01 
199 1448.03 3.53211805e+00 6.20510432e-01 
198 1449.42 3.61310159e+00 6.15050074e-01 
197 1450.81 3.62326117e+00 5.78425268e-01 
196 1452.20 3.65404998e+00 5.47901383e-01 
195 1453.59 3.79812624e+00 4.47267085e-01 
194 1454.97 3.94849536e+00 3.82571898e-01 
193 1456.36 3.96111935e+00 3.56876772e-01 
192 1457.75 4.00068276e+00 3.60908599e-01 
191 1459.13 3.96399243e+00 3.61402018e-01 
190 1460.51 3.93514694e+00 3.87612723e-01 
189 1461.90 3.81876341e+00 4.08282767e-01 
188 1463.28 3.78577257e+00 4.50807636e-01 
187 1464.66 3.70237450e+00 4.78626294e-01 
186 1466.04 3.72296997e+00 4.93493543e-01 
185 1467.41 3.60796447e+00 5.37900075e-01 
184 1468.79 3.57731374e+00 5.75394757e-01 
183 1470.17 3.53983311e+00 5.63341515e-01 
182 1471.54 3.57679170e+00 5.35306220e-01 
181 1472.92 3.62807432e+00 4.72944319e-01 
180 1474.29 3.72269450e+00 4.41753058e-01 
179 1475.66 3.71254213e+00 4.08253660e-01 
178 1477.03 3.66863087e+00 4.33359520e-01 
177 1478.40 3.63375830e+00 4.52237454e-01 
176 1479.77 3.68950615e+00 4.32276627e-01 
175 1481.14 3.68392457e+00 3.91741347e-01 
174 1482.51 3.76812425e+00 3.61715198e-01 
173 1483.87 3.73587009e+00 3.42062732e-01 
172 1485.24 3.70394568e+00 3.29950390e-01 
171 1486.60 3.65744293e+00 3.06065895e-01 
170 1487.96 3.72127724e+00 2.75453946e-01 
169 1489.32 3.71866484e+00 2.30368309e-01 
168 1490.68 3.85106767e+00 1.92721566e-01 
167 1492.04 3.84370175e+00 1.70428936e-01 
166 1493.40 3.88681997e+00 1.73155400e-01 
165 1494.76 3.86608041e+00 1.55909541e-01 
164 1496.12 3.89465907e+00 1.37392279e-01 
163 1497.47 3.85363602e+00 1.11431845e-01 
162 1498.83 3.91494068e+00 9.02024298e-02 
161 1500.18 3.77955724e+00 8.16506833e-02 
160 1501.53 3.72142731e+00 9.77787126e-02 
159 1502.89 3.61599326e+00 1.00733212e-01 
158 1504.24 3.64068197e+00 9.62283407e-02 
157 1505.59 3.67376037e+00 9.34558339e-02 
156 1506.93 3.78869742e+00 7.27695922e-02 
155 1508.28 3.82141388e+00 5.91565602e-02 
154 1509.63 3.85885580e+00 5.65859492e-02 
153 1510.97 3.80651502e+00 4.31085784e-02 
152 1512.32 3.85163774e+00 3.84443678e-02 
151 1513.66 3.77320548e+00 3.56278913e-02 
150 1515.00 3.81600262e+00 3.99131203e-02 
149 1516.34 3.76771224e+00 3.54864156e-02 
148 1517.69 3.78237240e+00 3.55768429e-02 
147 1519.02 3.71752312e+00 2.85861796e-02 
146 1520.36 3.72885454e+00 2.66590716e-02 
145 1521.70 3.67601511e+00 1.64275655e-02 
144 1523.04 3.72159133e+00 1.73729225e-02 
143 1524.37 3.67238929e+00 1.43212870e-02 
142 1525.71 3.70723928e+00 1.21898905e-02 
141 1527.04 3.64250186e+00 6.72541973e-03 
140 1528.37 3.66505318e+00 7.75575697e-03 
139 1529.70 3.59165603e+00 6.77177039e-03 
138 1531.03 3.62831453e+00 7.08166876e-03 
137 1532.36 3.57702228e+00 1.26536053e-02 
136 1533.69 3.61914484e+00 1.22980481e-02 
135 1535.02 3.55707181e+00 1.62894512e-02 
134 1536.34 3.59601703e+00 1.76622413e-02 
133 1537.67 3.54342261e+00 1.21538213e-02 
132 1538.99 3.57848425e+00 1.30282210e-02 
131 1540.31 3.51666953e+00 1.14808822e-02 
130 1541.64 3.55908350e+00 1.45531926e-02 
129 1542.96 3.52351046e+00 1.25148487e-02 
128 1544.28 3.55815031e+00 1.05750734e-02 
127 1545.60 3.47920346e+00 7.80924734e-03 
126 1546.91 3.51635044e+00 1.12355625e-02 
125 1548.23 3.43186630e+00 1.02427616e-02 
124 1549.55 3.46934413e+00 7.96837485e-03 
123 1550.86 3.39754460e+00 7.11488151e-03 
122 1552.18 3.41888126e+00 1.11009531e-02 
121 1553.49 3.34811676e+00 9.15242866e-03 
120 1554.80 3.38209942e+00 8.20266729e-03 
119 1556.11 3.31298764e+00 3.74988706e-03 
118 1557.42 3.35364385e+00 6.61231983e-03 
117 1558.73 3.28566623e+00 8.84618341e-03 
116 1560.04 3.30752534e+00 8.42865204e-03 
115 1561.34 3.22656136e+00 8.69190432e-03 
114 1562.65 3.27284885e+00 9.68104622e-03 
113 1563.95 3.19056589e+00 7.46967020e-03 
112 1565.26 3.23812311e+00 5.64390815e-03 
111 1566.56 3.12796994e+00 1.15867409e-02 
110 1567.86 3.14587011e+00 1.83380035e-02 
109 1569.16 3.03981521e+00 3.43615269e-02 
108 1570.46 3.02376236e+00 4.14371823e-02 
107 1571.76 2.92727958e+00 4.52588824e-02 
106 1573.05 2.91242364e+00 4.51070209e-02 
105 1574.35 2.81946781e+00 3.94473125e-02 
104 1575.64 2.84471773e+00 3.46403536e-02 
103 1576.94 2.81625492e+00 3.49995579e-02 
102 1578.23 2.87914062e+00 3.48985908e-02 
101 1579.52 2.85821215e+00 3.40640161e-02 
100 1580.81 2.92707585e+00 2.58648779e-02 
99 1582.10 2.87243222e+00 1.86007833e-02 
98 1583.39 2.93862709e+00 1.49520048e-02 
97 1584.68 2.87324361e+00 4.46123665e-03 
96 1585.97 2.87491304e+00 6.41418325e-03 
95 1587.25 2.77921679e+00 7.68086723e-03 
94 1588.54 2.78549351e+00 7.70131564e-03 
93 1589.82 2.71920583e+00 4.81633086e-03 
92 1591.10 2.80169489e+00 7.96557554e-03 
91 1592.38 2.75356982e+00 6.08945535e-03 
90 1593.66 2.80909045e+00 7.32523368e-03 
89 1594.94 2.74208661e+00 6.60108464e-03 
88 1596.22 2.77020284e+00 1.54241200e-02 
87 1597.50 2.68973915e+00 1.97786092e-02 
86 1598.77 2.70419958e+00 2.49965371e-02 
85 1600.05 2.61421336e+00 3.39396229e-02 
84 1601.32 2.63471265e+00 3.70063460e-02 
83 1602.59 2.55684959e+00 3.75313520e-02 
82 1603.86 2.61298715e+00 2.87172433e-02 
81 1605.13 2.51371747e+00 2.77646194e-02 
80 1606.40 2.56693416e+00 2.52005457e-02 
79 1607.67 2.47721181e+00 2.76998285e-02 
78 1608.94 2.51852557e+00 3.20040000e-02 
77 1610.20 2.46705676e+00 2.69752311e-02 
76 1611.47 2.53156493e+00 1.92089599e-02 
75 1612.73 2.47992234e+00 1.30455642e-02 
74 1614.00 2.52022768e+00 1.08270061e-02 
73 1615.26 2.44734558e+00 1.43013580e-02 
72 1616.52 2.46543179e+00 1.40145941e-02 
71 1617.78 2.36758868e+00 1.28960413e-02 
70 1619.03 2.40475152e+00 9.28907579e-03 
69 1620.29 2.34548185e+00 8.70898592e-03 
68 1621.55 2.40482181e+00 6.00285799e-03 
67 1622.80 2.34835266e+00 5.78273240e-03 
66 1624.06 2.41269893e+00 5.41352365e-03 
65 1625.31 2.32362127e+00 6.02276840e-03 
64 1626.56 2.37537320e+00 6.28086324e-03 
