% C0 (TOA Count Rate, /ms) for 4STAR VIS spectrometer (1044 channels) derived from (SEE Original files for sources) and recorded on 2017-08-24 16:33:25.
% Langley at MLO and airborne Data outside 2.0x the STD of 501 nm Langley residuals were screened out. 
% Including high Altitude rate spectra, matched to splined stratospheric AOD measured at MLO.
% Averages of c0 from multiple days including: , MLO -av-g-, WFF--20-17, infl-ig-ht, high- a-lt, high- a-lt. See the list of files below
% 20170605_VIS_C0_refined_Langley_MLO_May2017_averages.dat
% 20170801_VIS_C0_refined_langley_4STAR_WFF_ground.dat
% 20170807_VIS_C0_refined_langley_4STARpm.dat
% 20170809_VIS_C0_refined_high_alt_low_m_frompolyfit.dat
% 20170815_VIS_C0_refined_high_alt_low_m_frompolyfit.dat
Pix Wavelength C0 C0err
0 173.18 -6.00000000e-01 5.47722558e-01 
1 173.98 -1.00000000e+00 0.00000000e+00 
2 174.77 -1.00000000e+00 0.00000000e+00 
3 175.56 -1.00000000e+00 0.00000000e+00 
4 176.36 -1.00000000e+00 0.00000000e+00 
5 177.15 -1.00000000e+00 0.00000000e+00 
6 177.94 -1.00000000e+00 0.00000000e+00 
7 178.74 -1.00000000e+00 0.00000000e+00 
8 179.53 -1.00000000e+00 0.00000000e+00 
9 180.33 -1.00000000e+00 0.00000000e+00 
10 181.12 -1.00000000e+00 0.00000000e+00 
11 181.92 -1.00000000e+00 0.00000000e+00 
12 182.71 -1.00000000e+00 0.00000000e+00 
13 183.51 -1.00000000e+00 0.00000000e+00 
14 184.30 -1.00000000e+00 0.00000000e+00 
15 185.10 -1.00000000e+00 0.00000000e+00 
16 185.89 -1.00000000e+00 0.00000000e+00 
17 186.69 -1.00000000e+00 0.00000000e+00 
18 187.49 -1.00000000e+00 0.00000000e+00 
19 188.28 -1.00000000e+00 0.00000000e+00 
20 189.08 -1.00000000e+00 0.00000000e+00 
21 189.88 -1.00000000e+00 0.00000000e+00 
22 190.67 -1.00000000e+00 0.00000000e+00 
23 191.47 -1.00000000e+00 0.00000000e+00 
24 192.27 -1.00000000e+00 0.00000000e+00 
25 193.07 -1.00000000e+00 0.00000000e+00 
26 193.86 -1.00000000e+00 0.00000000e+00 
27 194.66 -1.00000000e+00 0.00000000e+00 
28 195.46 -1.00000000e+00 0.00000000e+00 
29 196.26 -1.00000000e+00 0.00000000e+00 
30 197.05 -1.00000000e+00 0.00000000e+00 
31 197.85 -1.00000000e+00 0.00000000e+00 
32 198.65 -1.00000000e+00 0.00000000e+00 
33 199.45 -1.00000000e+00 0.00000000e+00 
34 200.25 -1.00000000e+00 0.00000000e+00 
35 201.05 -1.00000000e+00 0.00000000e+00 
36 201.85 -1.00000000e+00 0.00000000e+00 
37 202.65 -1.00000000e+00 0.00000000e+00 
38 203.44 -1.00000000e+00 0.00000000e+00 
39 204.24 -1.00000000e+00 0.00000000e+00 
40 205.04 -1.00000000e+00 0.00000000e+00 
41 205.84 -1.00000000e+00 0.00000000e+00 
42 206.64 6.05630316e+37 1.35423056e+38 
43 207.44 3.59398842e-01 3.03970822e+00 
44 208.24 -4.07391213e-01 1.21098578e+00 
45 209.04 -5.02802496e-01 9.94948375e-01 
46 209.84 -4.13002318e-01 1.14347874e+00 
47 210.64 -3.02728528e-01 1.09637521e+00 
48 211.44 -3.10118392e-01 1.11842605e+00 
49 212.24 -3.59933615e-01 1.09681050e+00 
50 213.04 5.98376643e-01 2.66887979e+00 
51 213.85 1.58535084e+00 5.25254472e+00 
52 214.65 2.49686769e+00 7.26577543e+00 
53 215.45 7.12277186e+34 1.59270021e+35 
54 216.25 7.57682488e+33 1.69422955e+34 
55 217.05 8.11246310e+32 1.81400190e+33 
56 217.85 8.73943190e+31 1.95419638e+32 
57 218.65 9.37913472e+30 2.09723828e+31 
58 219.46 1.00562082e+30 2.24863652e+30 
59 220.26 1.08641109e+29 2.42928904e+29 
60 221.06 1.16560887e+28 2.60638068e+28 
61 221.86 1.27803128e+27 2.85776481e+27 
62 222.66 1.38523877e+26 3.09748805e+26 
63 223.47 1.50857353e+25 3.37327297e+25 
64 224.27 1.63367421e+24 3.65300658e+24 
65 225.07 1.77559539e+23 3.97035198e+23 
66 225.87 1.95574002e+22 4.37316763e+22 
67 226.68 2.18165512e+21 4.87832915e+21 
68 227.48 2.54630202e+20 5.69370441e+20 
69 228.28 3.47277810e+19 7.76536790e+19 
70 229.08 6.76468284e+18 1.51262907e+19 
71 229.89 2.57351714e+18 5.75455927e+18 
72 230.69 2.45950856e+18 5.49962833e+18 
73 231.49 6.36813650e+18 1.42395861e+19 
74 232.30 3.61710440e+19 8.08809132e+19 
75 233.10 3.36266502e+20 7.51914757e+20 
76 233.90 3.83890706e+21 8.58405715e+21 
77 234.71 4.81399600e+22 1.07644223e+23 
78 235.51 6.23228552e+23 1.39358141e+24 
79 236.32 8.34852690e+24 1.86678737e+25 
80 237.12 1.12990499e+26 2.52654436e+26 
81 237.92 1.55068820e+27 3.46744424e+27 
82 238.73 2.16519144e+28 4.84151524e+28 
83 239.53 3.03927578e+29 6.79602725e+29 
84 240.34 4.08619538e+30 9.13701064e+30 
85 241.14 5.14285942e+31 1.14997833e+32 
86 241.94 5.97344136e+32 1.33570209e+33 
87 242.75 6.34061102e+33 1.41780373e+34 
88 243.55 6.15525258e+34 1.37635632e+35 
89 244.36 1.26080618e+00 4.55146833e+00 
90 245.16 8.59917325e-01 3.60816894e+00 
91 245.97 2.22807453e-01 2.23577563e+00 
92 246.77 -3.77761048e-01 1.06638842e+00 
93 247.58 -4.22738311e-01 9.95700655e-01 
94 248.38 -3.49523578e-01 1.00534393e+00 
95 249.19 -3.67841718e-01 1.08322357e+00 
96 249.99 -3.93752198e-01 1.01721678e+00 
97 250.80 -4.40054579e-01 9.22126643e-01 
98 251.60 1.79970629e+11 4.02426560e+11 
99 252.41 -4.47848573e-01 1.11030374e+00 
100 253.21 -4.64155699e-01 1.03182335e+00 
101 254.02 -3.59284742e-01 1.23322986e+00 
102 254.82 -4.16032892e-01 1.18005787e+00 
103 255.63 -5.08572360e-01 9.35570454e-01 
104 256.44 -5.15312190e-01 9.23308672e-01 
105 257.24 -4.38715084e-01 1.05856680e+00 
106 258.05 1.22408205e+06 2.73713170e+06 
107 258.85 -1.02031709e-01 1.24819099e+00 
108 259.66 -4.46488605e-01 9.75033742e-01 
109 260.46 -3.90061780e-01 1.02363862e+00 
110 261.27 -3.66452309e-01 1.05967086e+00 
111 262.08 -4.08791118e-01 9.80710033e-01 
112 262.88 -1.96638037e-01 1.38763078e+00 
113 263.69 5.38160506e-01 2.92531298e+00 
114 264.49 7.75729763e-01 3.43863367e+00 
115 265.30 1.00329602e+00 3.95291510e+00 
116 266.11 1.74309841e+34 3.89768653e+34 
117 266.91 1.40560664e+33 3.14303199e+33 
118 267.72 9.81036300e+31 2.19366386e+32 
119 268.53 5.82549486e+30 1.30262025e+31 
120 269.33 3.78848428e+29 8.47130838e+29 
121 270.14 2.90823464e+28 6.50301035e+28 
122 270.95 2.05281578e+27 4.59023563e+27 
123 271.75 1.31693106e+26 2.94474738e+26 
124 272.56 7.78047878e+24 1.73976794e+25 
125 273.37 3.93801294e+23 8.80566463e+23 
126 274.17 2.00670672e+22 4.48713264e+22 
127 274.98 1.21263530e+21 2.71153495e+21 
128 275.79 8.32726548e+19 1.86203317e+20 
129 276.59 6.21312866e+18 1.38929780e+19 
130 277.40 4.89090314e+17 1.09363919e+18 
131 278.21 3.73537360e+16 8.35254929e+16 
132 279.01 3.70592874e+33 8.28670858e+33 
133 279.82 2.16883672e+31 4.84966634e+31 
134 280.63 1.22077163e+29 2.72972835e+29 
135 281.43 7.83360792e+26 1.75164798e+27 
136 282.24 7.73106550e+24 1.72871880e+25 
137 283.05 1.14949214e+23 2.57034256e+23 
138 283.86 2.05094828e+21 4.58605977e+21 
139 284.66 3.76806892e+19 8.42565825e+19 
140 285.47 9.34697804e+17 2.09004783e+18 
141 286.28 3.43262032e+16 7.67557237e+16 
142 287.09 1.46441506e+15 3.27453161e+15 
143 287.89 6.39918668e+13 1.43090160e+14 
144 288.70 3.49100284e+12 7.80611865e+12 
145 289.51 2.66535911e+11 5.95992116e+11 
146 290.32 2.50760490e+10 5.60716507e+10 
147 291.12 2.67731437e+09 5.98662196e+09 
148 291.93 3.18809649e+08 7.12867176e+08 
149 292.74 4.63913314e+07 1.03728938e+08 
150 293.55 8.05048250e+06 1.79990959e+07 
151 294.35 1.65716323e+06 3.70441831e+06 
152 295.16 3.82820319e+05 8.55446286e+05 
153 295.97 9.90597911e+04 2.21196877e+05 
154 296.78 2.86667576e+04 6.39243289e+04 
155 297.58 9.15058386e+03 2.03565338e+04 
156 298.39 3.34026016e+03 7.40252214e+03 
157 299.20 1.37964127e+03 3.04025355e+03 
158 300.01 6.17747153e+02 1.35003778e+03 
159 300.81 3.06383891e+02 6.62127504e+02 
160 301.62 1.59169894e+02 3.38395051e+02 
161 302.43 9.13679639e+01 1.90698779e+02 
162 303.24 5.58731881e+01 1.13849471e+02 
163 304.04 3.59271982e+01 7.09081770e+01 
164 304.85 2.41419197e+01 4.60060016e+01 
165 305.66 1.70040901e+01 3.11725825e+01 
166 306.47 1.25369407e+01 2.19782385e+01 
167 307.28 9.60254926e+00 1.60936774e+01 
168 308.08 7.65461287e+00 1.22223695e+01 
169 308.89 6.32612528e+00 9.68915948e+00 
170 309.70 5.15643278e+00 7.43480410e+00 
171 310.51 4.41116526e+00 6.00841059e+00 
172 311.32 3.83273964e+00 4.92961354e+00 
173 312.12 3.33168427e+00 4.04912006e+00 
174 312.93 2.95119667e+00 3.35714498e+00 
175 313.74 2.79309331e+00 2.91218101e+00 
176 314.55 2.51340362e+00 2.57652469e+00 
177 315.36 2.33688522e+00 2.29329013e+00 
178 316.16 2.21469044e+00 2.06484697e+00 
179 316.97 2.12983840e+00 1.92687295e+00 
180 317.78 2.02459381e+00 1.75011765e+00 
181 318.59 1.97002501e+00 1.62339624e+00 
182 319.40 1.90076239e+00 1.54252727e+00 
183 320.20 1.86667688e+00 1.40611737e+00 
184 321.01 1.81118374e+00 1.31918192e+00 
185 321.82 1.79295359e+00 1.26957431e+00 
186 322.63 1.76564561e+00 1.22256913e+00 
187 323.43 1.73949785e+00 1.15303637e+00 
188 324.24 1.73586302e+00 1.10896320e+00 
189 325.05 1.73083465e+00 1.08167974e+00 
190 325.86 1.73913797e+00 1.04060135e+00 
191 326.67 1.70474404e+00 1.01420139e+00 
192 327.48 1.72658925e+00 9.96762982e-01 
193 328.28 1.74779409e+00 9.82860232e-01 
194 329.09 1.75360998e+00 9.67693095e-01 
195 329.90 1.79574033e+00 9.64656787e-01 
196 330.71 1.85156500e+00 9.66658059e-01 
197 331.52 1.91666240e+00 9.76112999e-01 
198 332.32 2.05178023e+00 9.96103427e-01 
199 333.13 2.25776137e+00 1.11030427e+00 
200 333.94 2.69379234e+00 1.30651828e+00 
201 334.75 3.37128139e+00 1.62292436e+00 
202 335.55 4.29216436e+00 2.07457942e+00 
203 336.36 5.66076576e+00 2.71427189e+00 
204 337.17 7.81042224e+00 3.65308134e+00 
205 337.98 1.07230652e+01 5.08251230e+00 
206 338.79 1.42551287e+01 6.72222025e+00 
207 339.60 1.82746237e+01 8.47064200e+00 
208 340.40 2.18207644e+01 1.03033914e+01 
209 341.21 2.49699694e+01 1.15132346e+01 
210 342.02 2.86179434e+01 1.30117714e+01 
211 342.83 3.18320664e+01 1.44431662e+01 
212 343.63 3.30278779e+01 1.41491036e+01 
213 344.44 3.42081355e+01 1.49133262e+01 
214 345.25 3.82232961e+01 1.61690920e+01 
215 346.06 4.19540811e+01 1.74869783e+01 
216 346.87 4.43540821e+01 1.85313547e+01 
217 347.67 4.62291449e+01 1.88752228e+01 
218 348.48 4.81662796e+01 1.89744298e+01 
219 349.29 5.11773323e+01 1.99714611e+01 
220 350.10 5.64481525e+01 2.14214775e+01 
221 350.90 6.01022700e+01 2.22442361e+01 
222 351.71 6.06341181e+01 2.16328140e+01 
223 352.52 6.21131668e+01 2.15781307e+01 
224 353.33 6.81130936e+01 2.25140793e+01 
225 354.14 7.50052223e+01 2.48147441e+01 
226 354.94 7.88399379e+01 2.42751852e+01 
227 355.75 7.73173454e+01 2.43827408e+01 
228 356.56 7.32792801e+01 2.22804727e+01 
229 357.37 6.87149949e+01 2.15537972e+01 
230 358.18 6.80158413e+01 2.10573409e+01 
231 358.98 7.67507426e+01 2.27277146e+01 
232 359.79 8.90348482e+01 2.48409687e+01 
233 360.60 9.09398830e+01 2.46848990e+01 
234 361.41 8.99127948e+01 2.38858578e+01 
235 362.21 9.53375807e+01 2.39983605e+01 
236 363.02 1.01818361e+02 2.35596366e+01 
237 363.83 1.05906569e+02 2.29089576e+01 
238 364.64 1.10521983e+02 2.51944961e+01 
239 365.44 1.21608928e+02 2.48455596e+01 
240 366.25 1.30686083e+02 2.57727437e+01 
241 367.06 1.32377082e+02 2.47209657e+01 
242 367.87 1.30638670e+02 2.35288613e+01 
243 368.67 1.32951013e+02 2.27689190e+01 
244 369.48 1.38583911e+02 2.40026274e+01 
245 370.29 1.40717550e+02 2.21125998e+01 
246 371.10 1.38770302e+02 2.26325510e+01 
247 371.90 1.36209648e+02 1.99776493e+01 
248 372.71 1.28560486e+02 1.90560137e+01 
249 373.52 1.21721378e+02 1.73790726e+01 
250 374.33 1.20839737e+02 1.77043966e+01 
251 375.13 1.29466371e+02 1.84686429e+01 
252 375.94 1.41685839e+02 1.85005308e+01 
253 376.75 1.54833683e+02 1.83127779e+01 
254 377.56 1.69999430e+02 1.88981476e+01 
255 378.36 1.74411122e+02 1.82931677e+01 
256 379.17 1.65723852e+02 1.66343596e+01 
257 379.98 1.62260661e+02 1.58858709e+01 
258 380.78 1.62254791e+02 1.56238695e+01 
259 381.59 1.47815403e+02 1.48681372e+01 
260 382.40 1.25634816e+02 1.33326705e+01 
261 383.20 1.15317562e+02 1.26567805e+01 
262 384.01 1.25258435e+02 1.34646276e+01 
263 384.82 1.42542868e+02 1.34777298e+01 
264 385.63 1.49720626e+02 1.32747608e+01 
265 386.43 1.51061501e+02 1.32217747e+01 
266 387.24 1.51821153e+02 1.38377482e+01 
267 388.05 1.54261349e+02 1.38619120e+01 
268 388.85 1.64431316e+02 1.31550805e+01 
269 389.66 1.79611680e+02 1.46134474e+01 
270 390.47 1.92495533e+02 1.44992096e+01 
271 391.27 1.93667638e+02 1.45592468e+01 
272 392.08 1.73213701e+02 1.26594137e+01 
273 392.89 1.39851045e+02 1.14814796e+01 
274 393.69 1.31289448e+02 1.24917912e+01 
275 394.50 1.58071658e+02 1.30240050e+01 
276 395.31 1.78148760e+02 1.26434830e+01 
277 396.11 1.65381807e+02 1.28682524e+01 
278 396.92 1.55664557e+02 1.34756104e+01 
279 397.73 1.84332568e+02 1.51997930e+01 
280 398.53 2.28593921e+02 1.70431261e+01 
281 399.34 2.56612100e+02 1.85735702e+01 
282 400.15 2.70162867e+02 1.95237861e+01 
283 400.95 2.79944439e+02 1.99505058e+01 
284 401.76 2.87577260e+02 2.03443350e+01 
285 402.57 2.89900251e+02 2.04499202e+01 
286 403.37 2.88438543e+02 2.02125484e+01 
287 404.18 2.86868334e+02 2.02605746e+01 
288 404.99 2.85625933e+02 2.00973397e+01 
289 405.79 2.84874988e+02 1.94539950e+01 
290 406.60 2.85680113e+02 1.96287311e+01 
291 407.40 2.92758753e+02 2.01180930e+01 
292 408.21 3.04015480e+02 2.05169824e+01 
293 409.02 3.08713724e+02 2.03716326e+01 
294 409.82 3.04584518e+02 2.06959590e+01 
295 410.63 3.07874335e+02 2.10867795e+01 
296 411.43 3.21362591e+02 2.13933998e+01 
297 412.24 3.29804520e+02 2.21645694e+01 
298 413.05 3.30315475e+02 2.26791633e+01 
299 413.85 3.29529867e+02 2.29791862e+01 
300 414.66 3.29577133e+02 2.33173420e+01 
301 415.46 3.30135952e+02 2.38535379e+01 
302 416.27 3.29981816e+02 2.39922309e+01 
303 417.08 3.24937015e+02 2.43399557e+01 
304 417.88 3.18566995e+02 2.45809802e+01 
305 418.69 3.15364915e+02 2.48613212e+01 
306 419.49 3.15320703e+02 2.56382798e+01 
307 420.30 3.18748841e+02 2.65144696e+01 
308 421.11 3.22114814e+02 2.69179521e+01 
309 421.91 3.19066616e+02 2.72071959e+01 
310 422.72 3.13055062e+02 2.74388065e+01 
311 423.52 3.12638009e+02 2.73705538e+01 
312 424.33 3.16139504e+02 2.74505244e+01 
313 425.13 3.18320718e+02 2.75432945e+01 
314 425.94 3.18827497e+02 2.71148284e+01 
315 426.74 3.18649584e+02 2.66311716e+01 
316 427.55 3.18606446e+02 2.59775969e+01 
317 428.36 3.15464738e+02 2.45788929e+01 
318 429.16 3.03738519e+02 2.27928251e+01 
319 429.96 2.90465735e+02 2.17579428e+01 
320 430.77 2.98267207e+02 2.16216847e+01 
321 431.58 3.31402464e+02 2.15039658e+01 
322 432.38 3.65545824e+02 2.18342564e+01 
323 433.19 3.82493299e+02 2.21042851e+01 
324 433.99 3.91658107e+02 2.19165932e+01 
325 434.80 4.08677435e+02 2.15132367e+01 
326 435.60 4.32428376e+02 2.07968822e+01 
327 436.41 4.49209665e+02 1.99501940e+01 
328 437.21 4.50818429e+02 1.89760231e+01 
329 438.02 4.45944214e+02 1.82200289e+01 
330 438.82 4.49045550e+02 1.72374206e+01 
331 439.63 4.63783112e+02 1.62815616e+01 
332 440.43 4.84318071e+02 1.60946467e+01 
333 441.24 5.06028792e+02 1.59575812e+01 
334 442.04 5.25682214e+02 1.55309389e+01 
335 442.85 5.39414537e+02 1.54572614e+01 
336 443.65 5.47720676e+02 1.52051823e+01 
337 444.45 5.51570728e+02 1.45520927e+01 
338 445.26 5.51862746e+02 1.42423522e+01 
339 446.06 5.56620382e+02 1.42251355e+01 
340 446.87 5.70336682e+02 1.39117821e+01 
341 447.67 5.87614575e+02 1.36622385e+01 
342 448.48 6.01001833e+02 1.39269358e+01 
343 449.28 6.13451040e+02 1.40987593e+01 
344 450.09 6.27646749e+02 1.39216774e+01 
345 450.89 6.36261472e+02 1.34548534e+01 
346 451.70 6.31255595e+02 1.32268604e+01 
347 452.50 6.19174440e+02 1.31788114e+01 
348 453.30 6.13603385e+02 1.29782247e+01 
349 454.11 6.17547430e+02 1.24781221e+01 
350 454.91 6.27830589e+02 1.27097170e+01 
351 455.72 6.38775020e+02 1.28819235e+01 
352 456.52 6.48190098e+02 1.27186753e+01 
353 457.32 6.52435067e+02 1.24686649e+01 
354 458.13 6.51466156e+02 1.24431838e+01 
355 458.93 6.50619889e+02 1.24995559e+01 
356 459.74 6.54996263e+02 1.27020907e+01 
357 460.54 6.63998437e+02 1.29082726e+01 
358 461.34 6.73844790e+02 1.30762493e+01 
359 462.15 6.80297571e+02 1.31290776e+01 
360 462.95 6.80751184e+02 1.31395469e+01 
361 463.76 6.76505052e+02 1.30834767e+01 
362 464.56 6.72160038e+02 1.31727287e+01 
363 465.36 6.69298330e+02 1.30444616e+01 
364 466.17 6.67807776e+02 1.29002599e+01 
365 466.97 6.68541266e+02 1.30145230e+01 
366 467.77 6.72023891e+02 1.28638270e+01 
367 468.58 6.76182037e+02 1.26665106e+01 
368 469.38 6.76762840e+02 1.25815365e+01 
369 470.18 6.77328137e+02 1.31616172e+01 
370 470.99 6.84054014e+02 1.34890405e+01 
371 471.79 6.94875916e+02 1.34857833e+01 
372 472.59 7.04044521e+02 1.34763810e+01 
373 473.40 7.10436865e+02 1.38745090e+01 
374 474.20 7.14854899e+02 1.36288606e+01 
375 475.00 7.17904122e+02 1.35716484e+01 
376 475.81 7.19909900e+02 1.37734375e+01 
377 476.61 7.23888088e+02 1.39253881e+01 
378 477.41 7.31262577e+02 1.37270730e+01 
379 478.21 7.38479677e+02 1.37480813e+01 
380 479.02 7.43189219e+02 1.39331198e+01 
381 479.82 7.46008744e+02 1.41235550e+01 
382 480.62 7.49207530e+02 1.42070519e+01 
383 481.43 7.50946836e+02 1.42239978e+01 
384 482.23 7.49464756e+02 1.40316311e+01 
385 483.03 7.43875273e+02 1.39076215e+01 
386 483.84 7.32114062e+02 1.34210961e+01 
387 484.64 7.08983515e+02 1.27113868e+01 
388 485.44 6.79763389e+02 1.27791130e+01 
389 486.24 6.62065692e+02 1.30454990e+01 
390 487.04 6.65404167e+02 1.26641111e+01 
391 487.85 6.84881161e+02 1.25964793e+01 
392 488.65 7.07307422e+02 1.31201250e+01 
393 489.45 7.22745018e+02 1.34754041e+01 
394 490.26 7.28174493e+02 1.33459221e+01 
395 491.06 7.25375079e+02 1.37628150e+01 
396 491.86 7.19761064e+02 1.42008640e+01 
397 492.66 7.19288218e+02 1.42206761e+01 
398 493.46 7.26508252e+02 1.42123549e+01 
399 494.27 7.35089689e+02 1.42634876e+01 
400 495.07 7.39844092e+02 1.43268612e+01 
401 495.87 7.41555388e+02 1.42799386e+01 
402 496.67 7.38663674e+02 1.40531204e+01 
403 497.48 7.33001892e+02 1.38848433e+01 
404 498.28 7.27099518e+02 1.39040590e+01 
405 499.08 7.20133972e+02 1.37052587e+01 
406 499.88 7.12477962e+02 1.36146151e+01 
407 500.68 7.05412523e+02 1.37353740e+01 
408 501.48 7.01765281e+02 1.37655629e+01 
409 502.29 7.03905917e+02 1.35357495e+01 
410 503.09 7.08622815e+02 1.33263576e+01 
411 503.89 7.14697703e+02 1.34146993e+01 
412 504.69 7.22453448e+02 1.37354284e+01 
413 505.49 7.28911448e+02 1.35993463e+01 
414 506.29 7.30362293e+02 1.36145785e+01 
415 507.09 7.26439972e+02 1.37896787e+01 
416 507.90 7.22170357e+02 1.40739419e+01 
417 508.70 7.20710167e+02 1.37921625e+01 
418 509.50 7.21781004e+02 1.37385454e+01 
419 510.30 7.23453133e+02 1.39384210e+01 
420 511.10 7.22473926e+02 1.38574377e+01 
421 511.90 7.18004456e+02 1.38682685e+01 
422 512.71 7.10342363e+02 1.38805886e+01 
423 513.51 7.01934078e+02 1.39074484e+01 
424 514.31 6.95399965e+02 1.36647491e+01 
425 515.11 6.85507359e+02 1.29871283e+01 
426 515.91 6.68139119e+02 1.25900095e+01 
427 516.71 6.49795473e+02 1.26236648e+01 
428 517.51 6.39143430e+02 1.25408908e+01 
429 518.31 6.43321037e+02 1.21806290e+01 
430 519.11 6.59186908e+02 1.21544739e+01 
431 519.91 6.75597941e+02 1.23380258e+01 
432 520.71 6.87686656e+02 1.24938684e+01 
433 521.52 6.92911908e+02 1.28479875e+01 
434 522.32 6.95652775e+02 1.32556782e+01 
435 523.12 7.00635285e+02 1.35916489e+01 
436 523.92 7.06046102e+02 1.34819053e+01 
437 524.72 7.06386454e+02 1.31278223e+01 
438 525.52 6.96796244e+02 1.31566162e+01 
439 526.32 6.83939425e+02 1.34283850e+01 
440 527.12 6.80963015e+02 1.35121933e+01 
441 527.92 6.90610522e+02 1.32355036e+01 
442 528.72 7.06748069e+02 1.30769552e+01 
443 529.52 7.20338308e+02 1.32404910e+01 
444 530.32 7.26495067e+02 1.32757288e+01 
445 531.12 7.24320933e+02 1.31048953e+01 
446 531.92 7.17386609e+02 1.30978222e+01 
447 532.72 7.10694356e+02 1.31986562e+01 
448 533.52 7.09666884e+02 1.31040485e+01 
449 534.32 7.15356565e+02 1.30624851e+01 
450 535.12 7.21418126e+02 1.29016534e+01 
451 535.92 7.22611369e+02 1.29794716e+01 
452 536.72 7.20577187e+02 1.31633342e+01 
453 537.52 7.17499978e+02 1.32196185e+01 
454 538.32 7.13219765e+02 1.29077414e+01 
455 539.12 7.07321549e+02 1.27660833e+01 
456 539.92 7.01560675e+02 1.27448549e+01 
457 540.72 6.99432816e+02 1.24960941e+01 
