% C0 (TOA Count Rate, /ms) for 4STAR VIS spectrometer (1044 channels) derived from 4STAR_20170809starsun.mat and recorded on 2017-08-24 15:54:30.
% Using a high altitude AOD spectra, which has been polyfit to extrapolate to problematic wavelengths, calculating the c0 from the AOD at low airmass. 
Pix Wavelength C0 C0err
0 173.18 0.00000000e+00 0.00000000e+00 
1 173.98 -1.00000000e+00 0.00000000e+00 
2 174.77 -1.00000000e+00 0.00000000e+00 
3 175.56 -1.00000000e+00 0.00000000e+00 
4 176.36 -1.00000000e+00 0.00000000e+00 
5 177.15 -1.00000000e+00 0.00000000e+00 
6 177.94 -1.00000000e+00 0.00000000e+00 
7 178.74 -1.00000000e+00 0.00000000e+00 
8 179.53 -1.00000000e+00 0.00000000e+00 
9 180.33 -1.00000000e+00 0.00000000e+00 
10 181.12 -1.00000000e+00 0.00000000e+00 
11 181.92 -1.00000000e+00 0.00000000e+00 
12 182.71 -1.00000000e+00 0.00000000e+00 
13 183.51 -1.00000000e+00 0.00000000e+00 
14 184.30 -1.00000000e+00 0.00000000e+00 
15 185.10 -1.00000000e+00 0.00000000e+00 
16 185.89 -1.00000000e+00 0.00000000e+00 
17 186.69 -1.00000000e+00 0.00000000e+00 
18 187.49 -1.00000000e+00 0.00000000e+00 
19 188.28 -1.00000000e+00 0.00000000e+00 
20 189.08 -1.00000000e+00 0.00000000e+00 
21 189.88 -1.00000000e+00 0.00000000e+00 
22 190.67 -1.00000000e+00 0.00000000e+00 
23 191.47 -1.00000000e+00 0.00000000e+00 
24 192.27 -1.00000000e+00 0.00000000e+00 
25 193.07 -1.00000000e+00 0.00000000e+00 
26 193.86 -1.00000000e+00 0.00000000e+00 
27 194.66 -1.00000000e+00 0.00000000e+00 
28 195.46 -1.00000000e+00 0.00000000e+00 
29 196.26 -1.00000000e+00 0.00000000e+00 
30 197.05 -1.00000000e+00 0.00000000e+00 
31 197.85 -1.00000000e+00 0.00000000e+00 
32 198.65 -1.00000000e+00 0.00000000e+00 
33 199.45 -1.00000000e+00 0.00000000e+00 
34 200.25 -1.00000000e+00 0.00000000e+00 
35 201.05 -1.00000000e+00 0.00000000e+00 
36 201.85 -1.00000000e+00 0.00000000e+00 
37 202.65 -1.00000000e+00 0.00000000e+00 
38 203.44 -1.00000000e+00 0.00000000e+00 
39 204.24 -1.00000000e+00 0.00000000e+00 
40 205.04 -1.00000000e+00 0.00000000e+00 
41 205.84 -1.00000000e+00 0.00000000e+00 
42 206.64 -1.00000000e+00 0.00000000e+00 
43 207.44 -1.00000000e+00 0.00000000e+00 
44 208.24 -1.00000000e+00 0.00000000e+00 
45 209.04 -1.00000000e+00 0.00000000e+00 
46 209.84 -1.00000000e+00 0.00000000e+00 
47 210.64 -1.00000000e+00 0.00000000e+00 
48 211.44 -1.00000000e+00 0.00000000e+00 
49 212.24 -1.00000000e+00 -1.00000000e+00 
50 213.04 -1.00000000e+00 -1.00000000e+00 
51 213.85 -1.00000000e+00 -1.00000000e+00 
52 214.65 -1.00000000e+00 -1.00000000e+00 
53 215.45 3.56138593e+35 -1.00000000e+00 
54 216.25 3.78841244e+34 -1.00000000e+00 
55 217.05 4.05623155e+33 -1.00000000e+00 
56 217.85 4.36971595e+32 -1.00000000e+00 
57 218.65 4.68956736e+31 -1.00000000e+00 
58 219.46 5.02810412e+30 -1.00000000e+00 
59 220.26 5.43205543e+29 -1.00000000e+00 
60 221.06 5.82804437e+28 -1.00000000e+00 
61 221.86 6.39015639e+27 -1.00000000e+00 
62 222.66 6.92619383e+26 -1.00000000e+00 
63 223.47 7.54286766e+25 -1.00000000e+00 
64 224.27 8.16837104e+24 -1.00000000e+00 
65 225.07 8.87797693e+23 -1.00000000e+00 
66 225.87 9.77870010e+22 -1.00000000e+00 
67 226.68 1.09082756e+22 -1.00000000e+00 
68 227.48 1.27315101e+21 -1.00000000e+00 
69 228.28 1.73638905e+20 -1.00000000e+00 
70 229.08 3.38234142e+19 -1.00000000e+00 
71 229.89 1.28675857e+19 -1.00000000e+00 
72 230.69 1.22975428e+19 -1.00000000e+00 
73 231.49 3.18406825e+19 -1.00000000e+00 
74 232.30 1.80855220e+20 -1.00000000e+00 
75 233.10 1.68133251e+21 -1.00000000e+00 
76 233.90 1.91945353e+22 -1.00000000e+00 
77 234.71 2.40699800e+23 -1.00000000e+00 
78 235.51 3.11614276e+24 -1.00000000e+00 
79 236.32 4.17426345e+25 -1.00000000e+00 
80 237.12 5.64952493e+26 -1.00000000e+00 
81 237.92 7.75344102e+27 -1.00000000e+00 
82 238.73 1.08259572e+29 -1.00000000e+00 
83 239.53 1.51963789e+30 -1.00000000e+00 
84 240.34 2.04309769e+31 -1.00000000e+00 
85 241.14 2.57142971e+32 -1.00000000e+00 
86 241.94 2.98672068e+33 -1.00000000e+00 
87 242.75 3.17030551e+34 -1.00000000e+00 
88 243.55 3.07762629e+35 -1.00000000e+00 
89 244.36 -1.00000000e+00 -1.00000000e+00 
90 245.16 -1.00000000e+00 -1.00000000e+00 
91 245.97 -1.00000000e+00 -1.00000000e+00 
92 246.77 -1.00000000e+00 -1.00000000e+00 
93 247.58 -1.00000000e+00 -1.00000000e+00 
94 248.38 -1.00000000e+00 0.00000000e+00 
95 249.19 -1.00000000e+00 0.00000000e+00 
96 249.99 -1.00000000e+00 0.00000000e+00 
97 250.80 -1.00000000e+00 0.00000000e+00 
98 251.60 -1.00000000e+00 0.00000000e+00 
99 252.41 -1.00000000e+00 0.00000000e+00 
100 253.21 -1.00000000e+00 0.00000000e+00 
101 254.02 -1.00000000e+00 0.00000000e+00 
102 254.82 -1.00000000e+00 0.00000000e+00 
103 255.63 -1.00000000e+00 0.00000000e+00 
104 256.44 -1.00000000e+00 0.00000000e+00 
105 257.24 -1.00000000e+00 0.00000000e+00 
106 258.05 -1.00000000e+00 0.00000000e+00 
107 258.85 -1.00000000e+00 0.00000000e+00 
108 259.66 -1.00000000e+00 0.00000000e+00 
109 260.46 -1.00000000e+00 0.00000000e+00 
110 261.27 -1.00000000e+00 0.00000000e+00 
111 262.08 -1.00000000e+00 -1.00000000e+00 
112 262.88 -1.00000000e+00 -1.00000000e+00 
113 263.69 -1.00000000e+00 -1.00000000e+00 
114 264.49 -1.00000000e+00 -1.00000000e+00 
115 265.30 -1.00000000e+00 -1.00000000e+00 
116 266.11 8.71549204e+34 -1.00000000e+00 
117 266.91 7.02803319e+33 -1.00000000e+00 
118 267.72 4.90518150e+32 -1.00000000e+00 
119 268.53 2.91274743e+31 -1.00000000e+00 
120 269.33 1.89424214e+30 -1.00000000e+00 
121 270.14 1.45411732e+29 -1.00000000e+00 
122 270.95 1.02640789e+28 -1.00000000e+00 
123 271.75 6.58465532e+26 -1.00000000e+00 
124 272.56 3.89023939e+25 -1.00000000e+00 
125 273.37 1.96900647e+24 -1.00000000e+00 
126 274.17 1.00335336e+23 -1.00000000e+00 
127 274.98 6.06317648e+21 -1.00000000e+00 
128 275.79 4.16363274e+20 -1.00000000e+00 
129 276.59 3.10656433e+19 -1.00000000e+00 
130 277.40 2.44545157e+18 -1.00000000e+00 
131 278.21 1.86768680e+17 1.03838952e+17 
132 279.01 1.54410667e+16 8.06943932e+15 
133 279.82 1.37043186e+15 6.77156087e+14 
134 280.63 1.17235603e+14 5.38836782e+13 
135 281.43 1.08583201e+13 4.60147183e+12 
136 282.24 1.23817506e+12 4.85591974e+11 
137 283.05 1.68071610e+11 6.10945106e+10 
138 283.86 2.49730908e+10 8.53556787e+09 
139 284.66 3.77429862e+09 1.17397683e+09 
140 285.47 6.59551936e+08 1.88685968e+08 
141 286.28 1.38953840e+08 3.70860000e+07 
142 287.09 3.11570340e+07 7.71633400e+06 
143 287.89 7.01690000e+06 1.57628000e+06 
144 288.70 1.79511313e+06 3.75020625e+05 
145 289.51 5.31871125e+05 9.87977891e+04 
146 290.32 1.74670984e+05 3.01904219e+04 
147 291.12 6.10782188e+04 9.60796582e+03 
148 291.93 2.22128750e+04 3.16709668e+03 
149 292.74 8.91785352e+03 1.16906360e+03 
150 293.55 3.91541528e+03 4.61044647e+02 
151 294.35 1.84274426e+03 1.98508331e+02 
152 295.16 9.21882874e+02 9.19953918e+01 
153 295.97 4.90528992e+02 4.55627975e+01 
154 296.78 2.75723694e+02 2.27414341e+01 
155 297.58 1.59703857e+02 1.20688047e+01 
156 298.39 9.86819687e+01 6.61510420e+00 
157 299.20 6.45234680e+01 4.06111956e+00 
158 300.01 4.41187248e+01 2.64977336e+00 
159 300.81 3.13718319e+01 1.68342578e+00 
160 301.62 2.31668034e+01 1.12527633e+00 
161 302.43 1.74704742e+01 8.15665722e-01 
162 303.24 1.37153368e+01 5.96668720e-01 
163 304.04 1.11174784e+01 4.38402861e-01 
164 304.85 9.13900089e+00 3.55950832e-01 
165 305.66 7.64756012e+00 2.91681498e-01 
166 306.47 6.52250814e+00 2.37618670e-01 
167 307.28 5.69991255e+00 1.83001414e-01 
168 308.08 5.02222490e+00 1.52676806e-01 
169 308.89 4.47487402e+00 1.32018089e-01 
170 309.70 4.00646067e+00 1.24435775e-01 
171 310.51 3.65648198e+00 1.01375312e-01 
172 311.32 3.35666370e+00 8.96048099e-02 
173 312.12 3.09619117e+00 8.02270994e-02 
174 312.93 2.87415719e+00 7.33845085e-02 
175 313.74 2.71588516e+00 6.66626543e-02 
176 314.55 2.58748174e+00 6.18156306e-02 
177 315.36 2.48059988e+00 6.01443537e-02 
178 316.16 2.39234805e+00 5.36632799e-02 
179 316.97 2.32532644e+00 5.39439768e-02 
180 317.78 2.26370096e+00 5.28958887e-02 
181 318.59 2.22135234e+00 5.05323149e-02 
182 319.40 2.17452526e+00 4.93939705e-02 
183 320.20 2.16102409e+00 5.03292717e-02 
184 321.01 2.12879968e+00 4.66208272e-02 
185 321.82 2.11511111e+00 4.64236140e-02 
186 322.63 2.10781217e+00 4.51818295e-02 
187 323.43 2.09581542e+00 4.36172448e-02 
188 324.24 2.08957672e+00 3.97764556e-02 
189 325.05 2.09998465e+00 3.79857831e-02 
190 325.86 2.09535360e+00 3.85022089e-02 
191 326.67 2.09991884e+00 3.69657874e-02 
192 327.48 2.12296510e+00 4.16209288e-02 
193 328.28 2.15215373e+00 3.95039730e-02 
194 329.09 2.17293501e+00 3.87111194e-02 
195 329.90 2.22956872e+00 3.75604667e-02 
196 330.71 2.28434539e+00 3.84782143e-02 
197 331.52 2.38486338e+00 3.75155956e-02 
198 332.32 2.55322051e+00 3.75966169e-02 
199 333.13 2.87823725e+00 4.09647450e-02 
200 333.94 3.47490740e+00 4.30958420e-02 
201 334.75 4.39513350e+00 4.71195430e-02 
202 335.55 5.65658045e+00 4.98658158e-02 
203 336.36 7.40536976e+00 5.62592112e-02 
204 337.17 1.01037655e+01 6.68574125e-02 
205 337.98 1.37989130e+01 7.69129321e-02 
206 338.79 1.81573830e+01 9.23795179e-02 
207 339.60 2.30331421e+01 1.13034725e-01 
208 340.40 2.74622345e+01 1.15016505e-01 
209 341.21 3.11191788e+01 1.25218019e-01 
210 342.02 3.53856049e+01 1.20110691e-01 
211 342.83 3.92142944e+01 1.29003733e-01 
212 343.63 4.02326889e+01 1.36429414e-01 
213 344.44 4.16382217e+01 1.32090792e-01 
214 345.25 4.61586075e+01 1.44992679e-01 
215 346.06 5.04473419e+01 1.38095900e-01 
216 346.87 5.32488060e+01 1.43358707e-01 
217 347.67 5.52439346e+01 1.47349596e-01 
218 348.48 5.71409874e+01 1.42974943e-01 
219 349.29 6.05205269e+01 1.45405620e-01 
220 350.10 6.63451309e+01 1.53309777e-01 
221 350.90 7.03380508e+01 1.59642994e-01 
222 351.71 7.05677795e+01 1.61829636e-01 
223 352.52 7.19663391e+01 1.59519553e-01 
224 353.33 7.83084030e+01 1.65328175e-01 
225 354.14 8.61574936e+01 1.78946584e-01 
226 354.94 8.97382355e+01 1.85321063e-01 
227 355.75 8.82782516e+01 1.77853033e-01 
228 356.56 8.33530960e+01 1.76280171e-01 
229 357.37 7.84640427e+01 1.64417714e-01 
230 358.18 7.74466629e+01 1.64655253e-01 
231 358.98 8.67217560e+01 1.73157409e-01 
232 359.79 9.99266510e+01 1.82778507e-01 
233 360.60 1.01744865e+02 1.85579717e-01 
234 361.41 1.00281128e+02 1.81958243e-01 
235 362.21 1.05626480e+02 1.85341120e-01 
236 363.02 1.11839317e+02 1.94171265e-01 
237 363.83 1.15527077e+02 1.92152992e-01 
238 364.64 1.21041512e+02 1.88801229e-01 
239 365.44 1.31797409e+02 2.03896120e-01 
240 366.25 1.41150955e+02 2.18862951e-01 
241 367.06 1.42320282e+02 2.21020073e-01 
242 367.87 1.39993286e+02 2.14480147e-01 
243 368.67 1.41843491e+02 2.17517123e-01 
244 369.48 1.47991287e+02 2.29061723e-01 
245 370.29 1.49196121e+02 2.16705322e-01 
246 371.10 1.47468079e+02 2.15133145e-01 
247 371.90 1.43738007e+02 2.12866113e-01 
248 372.71 1.35736816e+02 1.95868656e-01 
249 373.52 1.28165009e+02 2.00288251e-01 
250 374.33 1.27240730e+02 1.99750125e-01 
251 375.13 1.35983353e+02 2.06484407e-01 
252 375.94 1.47956894e+02 2.17091754e-01 
253 376.75 1.60547455e+02 2.23185018e-01 
254 377.56 1.75661545e+02 2.36926481e-01 
255 378.36 1.79807495e+02 2.20565036e-01 
256 379.17 1.70335953e+02 2.20205605e-01 
257 379.98 1.66510239e+02 2.22023919e-01 
258 380.78 1.66605316e+02 2.22437099e-01 
259 381.59 1.52152527e+02 2.07106560e-01 
260 382.40 1.29606369e+02 1.82618678e-01 
261 383.20 1.18936142e+02 1.82405904e-01 
262 384.01 1.28967010e+02 1.88928142e-01 
263 384.82 1.45922043e+02 2.07799435e-01 
264 385.63 1.52704285e+02 2.07955956e-01 
265 386.43 1.53889618e+02 2.12672904e-01 
266 387.24 1.54870956e+02 2.14560881e-01 
267 388.05 1.56983917e+02 2.11922407e-01 
268 388.85 1.66158051e+02 2.20283791e-01 
269 389.66 1.81522797e+02 2.18056783e-01 
270 390.47 1.93700485e+02 2.40035698e-01 
271 391.27 1.95037308e+02 2.30833769e-01 
272 392.08 1.74402252e+02 2.21741751e-01 
273 392.89 1.40951233e+02 2.01390311e-01 
274 393.69 1.32578140e+02 1.94661081e-01 
275 394.50 1.58746460e+02 2.09425360e-01 
276 395.31 1.78130157e+02 2.20969230e-01 
277 396.11 1.65513077e+02 2.13252813e-01 
278 396.92 1.55442017e+02 1.98359951e-01 
279 397.73 1.83586700e+02 2.26786867e-01 
280 398.53 2.26717484e+02 2.52036750e-01 
281 399.34 2.53592850e+02 2.66053528e-01 
282 400.15 2.66300507e+02 2.58231014e-01 
283 400.95 2.75354370e+02 2.67991424e-01 
284 401.76 2.82743744e+02 2.78917462e-01 
285 402.57 2.84899292e+02 2.85244733e-01 
286 403.37 2.83321289e+02 2.77071476e-01 
287 404.18 2.82188599e+02 2.78783262e-01 
288 404.99 2.81077759e+02 2.70893037e-01 
289 405.79 2.79786285e+02 2.67910272e-01 
290 406.60 2.80547546e+02 2.80777633e-01 
291 407.40 2.87469177e+02 2.70937681e-01 
292 408.21 2.98583710e+02 2.73163021e-01 
293 409.02 3.03154541e+02 2.80162543e-01 
294 409.82 2.99024658e+02 2.86338627e-01 
295 410.63 3.02154266e+02 2.78146416e-01 
296 411.43 3.15426788e+02 2.93445289e-01 
297 412.24 3.23663910e+02 2.90995061e-01 
298 413.05 3.23697174e+02 2.94297099e-01 
299 413.85 3.22699127e+02 3.04316223e-01 
300 414.66 3.22213348e+02 2.95861065e-01 
301 415.46 3.22426971e+02 2.95333564e-01 
302 416.27 3.21798462e+02 2.86936373e-01 
303 417.08 3.16518982e+02 2.81851739e-01 
304 417.88 3.09680939e+02 2.79619545e-01 
305 418.69 3.06245056e+02 2.87124544e-01 
306 419.49 3.05718994e+02 2.71646261e-01 
307 420.30 3.08381104e+02 2.77966529e-01 
308 421.11 3.11122833e+02 2.64531076e-01 
309 421.91 3.07651581e+02 2.75755703e-01 
310 422.72 3.01362579e+02 2.73762614e-01 
311 423.52 3.00695435e+02 2.73834378e-01 
312 424.33 3.03980377e+02 2.80628175e-01 
313 425.13 3.06103546e+02 2.87725985e-01 
314 425.94 3.06609650e+02 3.01869929e-01 
315 426.74 3.06507751e+02 2.90794700e-01 
316 427.55 3.06465332e+02 3.00702184e-01 
317 428.36 3.03794098e+02 3.01254928e-01 
318 429.16 2.92923615e+02 3.00014615e-01 
319 429.96 2.80591492e+02 2.80989468e-01 
320 430.77 2.88674866e+02 2.93047190e-01 
321 431.58 3.21599457e+02 3.11032176e-01 
322 432.38 3.55592682e+02 3.17534238e-01 
323 433.19 3.72508942e+02 3.28508258e-01 
324 433.99 3.82195099e+02 3.36433053e-01 
325 434.80 3.99461761e+02 3.41187447e-01 
326 435.60 4.23639862e+02 3.34736198e-01 
327 436.41 4.40915314e+02 3.45430911e-01 
328 437.21 4.43165985e+02 3.33188027e-01 
329 438.02 4.38831757e+02 3.40698093e-01 
330 438.82 4.42927826e+02 3.21842760e-01 
331 439.63 4.58297913e+02 3.54228765e-01 
332 440.43 4.79485443e+02 3.39088261e-01 
333 441.24 5.01583038e+02 3.56800646e-01 
334 442.04 5.21692810e+02 3.58013451e-01 
335 442.85 5.35624695e+02 3.67574841e-01 
336 443.65 5.44123596e+02 3.79418045e-01 
337 444.45 5.48302673e+02 3.84123266e-01 
338 445.26 5.48844849e+02 3.65549535e-01 
339 446.06 5.53847900e+02 3.88312936e-01 
340 446.87 5.67871277e+02 4.03600872e-01 
341 447.67 5.85471436e+02 4.17551875e-01 
342 448.48 5.99051331e+02 3.93255025e-01 
343 449.28 6.11798462e+02 3.86697441e-01 
344 450.09 6.26309753e+02 4.37799841e-01 
345 450.89 6.35242065e+02 4.35620874e-01 
346 451.70 6.30307617e+02 4.32543755e-01 
347 452.50 6.18276001e+02 4.28655416e-01 
348 453.30 6.12737854e+02 3.98834348e-01 
349 454.11 6.17027954e+02 4.16333795e-01 
350 454.91 6.27265503e+02 4.27755952e-01 
351 455.72 6.38326782e+02 4.39355254e-01 
352 456.52 6.47989868e+02 4.58812922e-01 
353 457.32 6.52604675e+02 4.52007204e-01 
354 458.13 6.51796448e+02 4.42911744e-01 
355 458.93 6.51067383e+02 4.58765149e-01 
356 459.74 6.55359497e+02 4.49725658e-01 
357 460.54 6.64256592e+02 4.51223999e-01 
358 461.34 6.73966431e+02 4.48426276e-01 
359 462.15 6.80323608e+02 4.65309918e-01 
360 462.95 6.80688782e+02 4.86872911e-01 
361 463.76 6.76411926e+02 4.70188439e-01 
362 464.56 6.72030457e+02 4.84502107e-01 
363 465.36 6.69195557e+02 4.92171049e-01 
364 466.17 6.67905334e+02 4.80910122e-01 
365 466.97 6.68651184e+02 4.84206855e-01 
366 467.77 6.72315247e+02 4.58457291e-01 
367 468.58 6.76465942e+02 4.57418412e-01 
368 469.38 6.77117737e+02 4.61482018e-01 
369 470.18 6.77344788e+02 4.62817609e-01 
370 470.99 6.83910583e+02 4.69624519e-01 
371 471.79 6.94539978e+02 4.87793952e-01 
372 472.59 7.03796509e+02 4.81688142e-01 
373 473.40 7.10016174e+02 5.08815706e-01 
374 474.20 7.14517334e+02 5.22870362e-01 
375 475.00 7.17660156e+02 5.35941958e-01 
376 475.81 7.19659973e+02 5.36111355e-01 
377 476.61 7.23779175e+02 5.09604275e-01 
378 477.41 7.31290161e+02 5.21806896e-01 
379 478.21 7.38503418e+02 5.07388175e-01 
380 479.02 7.43153137e+02 5.30213714e-01 
381 479.82 7.45812439e+02 5.34436822e-01 
382 480.62 7.48818115e+02 5.41078627e-01 
383 481.43 7.50400818e+02 5.45339763e-01 
384 482.23 7.48945618e+02 5.29493034e-01 
385 483.03 7.43342896e+02 5.19719303e-01 
386 483.84 7.31615234e+02 5.05709767e-01 
387 484.64 7.08508240e+02 4.91319925e-01 
388 485.44 6.79222595e+02 4.71604139e-01 
389 486.24 6.61546509e+02 4.75882500e-01 
390 487.04 6.65079529e+02 4.60416675e-01 
391 487.85 6.84637024e+02 4.85676199e-01 
392 488.65 7.06988220e+02 4.84392375e-01 
393 489.45 7.22259399e+02 4.78677034e-01 
394 490.26 7.27619873e+02 4.82499242e-01 
395 491.06 7.24409180e+02 4.78327990e-01 
396 491.86 7.18463684e+02 4.72367793e-01 
397 492.66 7.17901367e+02 4.82976794e-01 
398 493.46 7.25151489e+02 4.60532188e-01 
399 494.27 7.33719910e+02 4.67488766e-01 
400 495.07 7.38521973e+02 5.02791226e-01 
401 495.87 7.40375061e+02 4.89451408e-01 
402 496.67 7.37602173e+02 4.83345330e-01 
403 497.48 7.32081055e+02 4.89479423e-01 
404 498.28 7.26176392e+02 4.74363804e-01 
405 499.08 7.19208191e+02 4.74988401e-01 
406 499.88 7.11384949e+02 4.56084490e-01 
407 500.68 7.04247742e+02 4.90413666e-01 
408 501.48 7.00613037e+02 4.52522427e-01 
409 502.29 7.02912415e+02 4.52925026e-01 
410 503.09 7.07841553e+02 4.64271039e-01 
411 503.89 7.14185974e+02 4.75459218e-01 
412 504.69 7.21923157e+02 4.72215384e-01 
413 505.49 7.28416870e+02 4.75110710e-01 
414 506.29 7.29921082e+02 4.80915368e-01 
415 507.09 7.25978882e+02 4.86062676e-01 
416 507.90 7.21544128e+02 4.88625914e-01 
417 508.70 7.20178711e+02 4.84263390e-01 
418 509.50 7.21322266e+02 4.86977249e-01 
419 510.30 7.22874756e+02 5.03635943e-01 
420 511.10 7.21825439e+02 4.88131672e-01 
421 511.90 7.17176208e+02 4.85912949e-01 
422 512.71 7.09428284e+02 4.72471476e-01 
423 513.51 7.01073181e+02 4.80371624e-01 
424 514.31 6.94562561e+02 4.75735456e-01 
425 515.11 6.84972412e+02 4.64105994e-01 
426 515.91 6.67790527e+02 4.52124536e-01 
427 516.71 6.49560181e+02 4.77119625e-01 
428 517.51 6.39017334e+02 4.71206367e-01 
429 518.31 6.43434753e+02 4.56036985e-01 
430 519.11 6.59449768e+02 4.69222963e-01 
431 519.91 6.75871460e+02 4.91215289e-01 
432 520.71 6.88033020e+02 4.79876578e-01 
433 521.52 6.93102600e+02 4.88773078e-01 
434 522.32 6.95691467e+02 4.93583828e-01 
435 523.12 7.00646973e+02 4.79639977e-01 
436 523.92 7.06083374e+02 4.79627401e-01 
437 524.72 7.06562195e+02 4.83012319e-01 
438 525.52 6.96952454e+02 4.95816916e-01 
439 526.32 6.84132385e+02 4.79014754e-01 
440 527.12 6.81346008e+02 4.74259317e-01 
441 527.92 6.91174316e+02 4.91549462e-01 
442 528.72 7.07506531e+02 4.93985206e-01 
443 529.52 7.21221436e+02 4.95437026e-01 
444 530.32 7.27459656e+02 4.72855508e-01 
445 531.12 7.25327637e+02 4.90037620e-01 
446 531.92 7.18499146e+02 4.70675558e-01 
447 532.72 7.11834106e+02 4.93446708e-01 
448 533.52 7.10971191e+02 4.99424279e-01 
449 534.32 7.16710754e+02 4.94120896e-01 
450 535.12 7.22756409e+02 4.91747260e-01 
451 535.92 7.23823364e+02 4.93786514e-01 
452 536.72 7.21699158e+02 4.98097986e-01 
453 537.52 7.18559692e+02 5.10107279e-01 
454 538.32 7.14308655e+02 4.91255850e-01 
455 539.12 7.08493713e+02 5.00611007e-01 
456 539.92 7.02944214e+02 5.26968956e-01 
457 540.72 7.01200134e+02 4.91072983e-01 
458 541.52 7.04053406e+02 5.04325449e-01 
459 542.32 7.09980469e+02 5.44971287e-01 
460 543.12 7.15725342e+02 5.00869513e-01 
461 543.92 7.19798218e+02 4.84568387e-01 
462 544.72 7.22399658e+02 4.80249166e-01 
463 545.52 7.22231323e+02 4.80964392e-01 
464 546.32 7.18787964e+02 4.74431187e-01 
465 547.12 7.14224060e+02 4.81407404e-01 
466 547.91 7.11390930e+02 4.74064171e-01 
