% Radiance calibration [Resp in cts/ms / W/(m^2.sr.um)] for 4STAR NIR spectrometer (512 channels) derived from 4STAR_20171102_005_NIR_ZEN.dat on 2017-11-07 15:56:16. 
% Calibration used only data with Lamps_9 and 8 ms (vis), 100 ms (nir). 
% Also requires calibrated radiance from 20160121125700HISS.txt. 
Pix  Wavelength     resp       rate        rad 
511  949.79  9.02589169e-02 1.06459261e+02 1.17974278e+03 
510  949.79  9.32882519e-02 1.09990226e+02 1.17973948e+03 
509  951.68  9.87395908e-02 1.16283983e+02 1.17792613e+03 
508  953.57  1.01416697e-01 1.19211532e+02 1.17610578e+03 
507  955.46  1.07466122e-01 1.26168457e+02 1.17428790e+03 
506  957.34  1.10247600e-01 1.29180579e+02 1.17247249e+03 
505  959.22  1.16059221e-01 1.35824179e+02 1.17065954e+03 
504  961.10  1.18826356e-01 1.38785768e+02 1.16875878e+03 
503  962.98  1.24378364e-01 1.45087959e+02 1.16679692e+03 
502  964.85  1.25918794e-01 1.46576399e+02 1.16483770e+03 
501  966.72  1.32211556e-01 1.53696309e+02 1.16288110e+03 
500  968.59  1.34534679e-01 1.56074373e+02 1.16092713e+03 
499  970.45  1.39282210e-01 1.61362921e+02 1.15897668e+03 
498  972.32  1.40640828e-01 1.62615113e+02 1.15703165e+03 
497  974.18  1.45306322e-01 1.66942811e+02 1.15508920e+03 
496  976.04  1.45612669e-01 1.66959346e+02 1.15314934e+03 
495  977.89  1.49668222e-01 1.70623186e+02 1.15121205e+03 
494  979.74  1.49699533e-01 1.70331601e+02 1.14927732e+03 
493  981.59  1.52852455e-01 1.72970433e+02 1.14742169e+03 
492  983.44  1.52572356e-01 1.72505825e+02 1.14558078e+03 
491  985.29  1.55486149e-01 1.74946661e+02 1.14374228e+03 
490  987.13  1.54623860e-01 1.73905210e+02 1.14190620e+03 
489  988.97  1.57467931e-01 1.76361132e+02 1.14007252e+03 
488  990.81  1.56253801e-01 1.74985484e+02 1.13835898e+03 
487  992.65  1.57973988e-01 1.76431519e+02 1.13679633e+03 
486  994.48  1.56998868e-01 1.75194955e+02 1.13523572e+03 
485  996.31  1.58816039e-01 1.76788172e+02 1.13367713e+03 
484  998.14  1.56785423e-01 1.74697273e+02 1.13212055e+03 
483  999.97  1.58979957e-01 1.76556503e+02 1.13056599e+03 
482  1001.79  1.57090643e-01 1.74529868e+02 1.12903137e+03 
481  1003.62  1.58196096e-01 1.75368240e+02 1.12749903e+03 
480  1005.44  1.56433628e-01 1.73517370e+02 1.12596865e+03 
479  1007.25  1.58568689e-01 1.75315871e+02 1.12444023e+03 
478  1009.07  1.56097435e-01 1.72952219e+02 1.12291377e+03 
477  1010.88  1.57486488e-01 1.73972189e+02 1.12132495e+03 
476  1012.69  1.55480208e-01 1.71895103e+02 1.11967020e+03 
475  1014.50  1.56234329e-01 1.72486048e+02 1.11801756e+03 
474  1016.31  1.54207552e-01 1.70345927e+02 1.11636700e+03 
473  1018.11  1.55947301e-01 1.71741355e+02 1.11471853e+03 
472  1019.91  1.53743978e-01 1.69591297e+02 1.11307214e+03 
471  1021.71  1.55491075e-01 1.71022621e+02 1.11135604e+03 
470  1023.51  1.53179592e-01 1.68596281e+02 1.10963831e+03 
469  1025.30  1.55291878e-01 1.70407013e+02 1.10792274e+03 
468  1027.09  1.55162267e-01 1.69916708e+02 1.10620931e+03 
467  1028.88  1.57435359e-01 1.71808508e+02 1.10449802e+03 
466  1030.67  1.56534210e-01 1.70771792e+02 1.10270233e+03 
465  1032.46  1.59257093e-01 1.72923200e+02 1.10076494e+03 
464  1034.24  1.58553120e-01 1.72037283e+02 1.09882995e+03 
463  1036.02  1.61094496e-01 1.74077370e+02 1.09689734e+03 
462  1037.80  1.60922069e-01 1.73611576e+02 1.09496712e+03 
461  1039.58  1.63845440e-01 1.75951231e+02 1.09303927e+03 
460  1041.35  1.63188589e-01 1.75167436e+02 1.09131243e+03 
459  1043.12  1.66050971e-01 1.77507686e+02 1.08964986e+03 
458  1044.89  1.66554537e-01 1.77662651e+02 1.08798931e+03 
457  1046.66  1.69584562e-01 1.80132683e+02 1.08633079e+03 
456  1048.43  1.69578597e-01 1.79758965e+02 1.08467428e+03 
455  1050.19  1.73127898e-01 1.82701554e+02 1.08294753e+03 
454  1051.95  1.72770402e-01 1.82051037e+02 1.08063263e+03 
453  1053.71  1.76354995e-01 1.84797701e+02 1.07832051e+03 
452  1055.47  1.76103124e-01 1.84342046e+02 1.07601118e+03 
451  1057.23  1.78513623e-01 1.86036318e+02 1.07370462e+03 
450  1058.98  1.78282962e-01 1.85470003e+02 1.07140083e+03 
449  1060.73  1.80392626e-01 1.86984617e+02 1.06908372e+03 
448  1062.48  1.78334937e-01 1.84898545e+02 1.06674695e+03 
447  1064.23  1.80657066e-01 1.86588524e+02 1.06441296e+03 
446  1065.97  1.78896202e-01 1.84653640e+02 1.06208174e+03 
445  1067.71  1.79516626e-01 1.84883403e+02 1.05975328e+03 
444  1069.46  1.77374402e-01 1.82689807e+02 1.05742757e+03 
443  1071.19  1.77987479e-01 1.83074335e+02 1.05524433e+03 
442  1072.93  1.75748487e-01 1.80723883e+02 1.05312729e+03 
441  1074.67  1.76743946e-01 1.81360594e+02 1.05101274e+03 
440  1076.40  1.74604251e-01 1.79144410e+02 1.04890066e+03 
439  1078.13  1.75509835e-01 1.79760004e+02 1.04679105e+03 
438  1079.86  1.73891037e-01 1.78046049e+02 1.04468390e+03 
437  1081.58  1.74791615e-01 1.78442750e+02 1.04222915e+03 
436  1083.31  1.75020911e-01 1.78288858e+02 1.03974576e+03 
435  1085.03  1.77260203e-01 1.79742324e+02 1.03726524e+03 
434  1086.75  1.77053339e-01 1.79304160e+02 1.03478759e+03 
433  1088.47  1.79905354e-01 1.81286044e+02 1.03231279e+03 
432  1090.19  1.80328653e-01 1.81222026e+02 1.02982625e+03 
431  1091.90  1.83914733e-01 1.83889686e+02 1.02722338e+03 
430  1093.61  1.84536905e-01 1.83920627e+02 1.02462349e+03 
429  1095.33  1.88624786e-01 1.86944414e+02 1.02202656e+03 
428  1097.03  1.89920083e-01 1.87643831e+02 1.01943259e+03 
427  1098.74  1.93602459e-01 1.90228149e+02 1.01684157e+03 
426  1100.45  1.94989517e-01 1.90877797e+02 1.01405872e+03 
425  1102.15  2.00375726e-01 1.94748339e+02 1.01072934e+03 
424  1103.85  2.02014910e-01 1.95468324e+02 1.00740371e+03 
423  1105.55  2.06439338e-01 1.98655854e+02 1.00408182e+03 
422  1107.25  2.07721746e-01 1.99025159e+02 1.00076366e+03 
421  1108.94  2.11666026e-01 2.01595406e+02 9.97449212e+02 
420  1110.64  2.12642589e-01 2.01751218e+02 9.93267169e+02 
419  1112.33  2.16254274e-01 2.03531190e+02 9.87639248e+02 
418  1114.02  2.15855068e-01 2.02280248e+02 9.82017581e+02 
417  1115.70  2.18935690e-01 2.03724449e+02 9.76402146e+02 
416  1117.39  2.18049820e-01 2.02035524e+02 9.70792922e+02 
415  1119.07  2.20102315e-01 2.02613211e+02 9.65189885e+02 
414  1120.76  2.21004330e-01 2.02499682e+02 9.60281460e+02 
413  1122.44  2.23894424e-01 2.03917024e+02 9.56219909e+02 
412  1124.12  2.24575434e-01 2.03794080e+02 9.52162806e+02 
411  1125.79  2.28766847e-01 2.06218168e+02 9.48110136e+02 
410  1127.47  2.30680411e-01 2.06941827e+02 9.44061884e+02 
409  1129.14  2.34218408e-01 2.08586924e+02 9.40018034e+02 
408  1130.81  2.31790848e-01 2.06294239e+02 9.36442757e+02 
407  1132.48  2.31509601e-01 2.05595091e+02 9.33362598e+02 
406  1134.15  2.29549836e-01 2.03500494e+02 9.30285764e+02 
405  1135.81  2.31412137e-01 2.04349076e+02 9.27212244e+02 
404  1137.48  2.35255130e-01 2.06616452e+02 9.24142027e+02 
403  1139.14  2.38025651e-01 2.07968788e+02 9.21075100e+02 
402  1140.80  2.35765880e-01 2.05805045e+02 9.17601145e+02 
401  1142.46  2.35505687e-01 2.04887065e+02 9.13691488e+02 
400  1144.12  2.32230836e-01 2.01777003e+02 9.09785992e+02 
399  1145.77  2.32961383e-01 2.01533640e+02 9.05884642e+02 
398  1147.43  2.32447855e-01 2.00381395e+02 9.01987423e+02 
397  1149.08  2.33163938e-01 2.00214638e+02 8.98094320e+02 
396  1150.73  2.31885971e-01 1.98652020e+02 8.94533416e+02 
395  1152.38  2.33490901e-01 1.99171780e+02 8.91391863e+02 
394  1154.02  2.32243702e-01 1.97860302e+02 8.88253605e+02 
393  1155.67  2.35661757e-01 1.99572216e+02 8.85118630e+02 
392  1157.31  2.34653878e-01 1.98278482e+02 8.81986927e+02 
391  1158.95  2.35378165e-01 1.98140411e+02 8.78858484e+02 
390  1160.59  2.34747815e-01 1.97203947e+02 8.75891125e+02 
389  1162.23  2.35926374e-01 1.97472198e+02 8.73206506e+02 
388  1163.87  2.33491726e-01 1.95335690e+02 8.70524662e+02 
387  1165.50  2.34069131e-01 1.95184767e+02 8.67845583e+02 
386  1167.13  2.32407494e-01 1.93572201e+02 8.65169260e+02 
385  1168.76  2.32432355e-01 1.93142159e+02 8.62495684e+02 
384  1170.39  2.30373085e-01 1.91102208e+02 8.59612679e+02 
383  1172.02  2.30417920e-01 1.90540337e+02 8.56067135e+02 
382  1173.65  2.28630224e-01 1.88569936e+02 8.52525202e+02 
381  1175.27  2.28539312e-01 1.88008926e+02 8.48986870e+02 
380  1176.90  2.26450368e-01 1.85912234e+02 8.45452125e+02 
379  1178.52  2.25622428e-01 1.84705870e+02 8.41920955e+02 
378  1180.14  2.23007653e-01 1.82282400e+02 8.38320071e+02 
377  1181.75  2.22054586e-01 1.80835196e+02 8.33925519e+02 
376  1183.37  2.18899243e-01 1.77934405e+02 8.29535379e+02 
375  1184.99  2.18465190e-01 1.76979870e+02 8.25149638e+02 
374  1186.60  2.15917925e-01 1.74481491e+02 8.20768279e+02 
373  1188.21  2.14164801e-01 1.72664553e+02 8.16391289e+02 
372  1189.82  2.12335093e-01 1.70693676e+02 8.12018652e+02 
371  1191.43  2.14581637e-01 1.71454691e+02 8.08490277e+02 
370  1193.04  2.13349933e-01 1.70108970e+02 8.05071080e+02 
369  1194.64  2.14587253e-01 1.70368159e+02 8.01655260e+02 
368  1196.24  2.14056859e-01 1.69452622e+02 7.98242805e+02 
367  1197.85  2.15060377e-01 1.69496981e+02 7.94833703e+02 
366  1199.45  2.15001376e-01 1.68834536e+02 7.91427944e+02 
365  1201.05  2.16024297e-01 1.68996607e+02 7.89029043e+02 
364  1202.64  2.14905234e-01 1.68107169e+02 7.87163367e+02 
363  1204.24  2.15886262e-01 1.68368139e+02 7.85299507e+02 
362  1205.83  2.14810524e-01 1.67273173e+02 7.83437458e+02 
361  1207.43  2.15768669e-01 1.67595253e+02 7.81577212e+02 
360  1209.02  2.16083573e-01 1.67501323e+02 7.79718765e+02 
359  1210.61  2.17313150e-01 1.68048487e+02 7.78336663e+02 
358  1212.19  2.16850447e-01 1.67673265e+02 7.77725255e+02 
357  1213.78  2.18703776e-01 1.68635901e+02 7.77114433e+02 
356  1215.37  2.18906022e-01 1.68707735e+02 7.76504197e+02 
355  1216.95  2.19602384e-01 1.69022649e+02 7.75894543e+02 
354  1218.53  2.20002349e-01 1.69153858e+02 7.75285471e+02 
353  1220.11  2.21779705e-01 1.70141482e+02 7.74660103e+02 
352  1221.69  2.22466842e-01 1.70498527e+02 7.73813757e+02 
351  1223.27  2.24395152e-01 1.71477476e+02 7.72968213e+02 
350  1224.84  2.25222004e-01 1.71808022e+02 7.72123466e+02 
349  1226.42  2.26105862e-01 1.72235457e+02 7.71279515e+02 
348  1227.99  2.27028829e-01 1.72601672e+02 7.70436357e+02 
347  1229.56  2.28959706e-01 1.73588624e+02 7.69593989e+02 
346  1231.13  2.28350629e-01 1.73120713e+02 7.68480355e+02 
345  1232.70  2.28811546e-01 1.73162111e+02 7.67263085e+02 
344  1234.27  2.28754038e-01 1.72936836e+02 7.66046949e+02 
343  1235.84  2.29085947e-01 1.72919357e+02 7.64831943e+02 
342  1237.40  2.29123523e-01 1.72725521e+02 7.63618063e+02 
341  1238.96  2.29233824e-01 1.72491028e+02 7.62405305e+02 
340  1240.52  2.27417943e-01 1.71174993e+02 7.61065902e+02 
339  1242.08  2.29836092e-01 1.72375098e+02 7.59474749e+02 
338  1243.64  2.30749315e-01 1.72578365e+02 7.57885058e+02 
337  1245.20  2.31218632e-01 1.72625213e+02 7.56296824e+02 
336  1246.75  2.31436106e-01 1.72489319e+02 7.54710041e+02 
335  1248.31  2.32468380e-01 1.72759985e+02 7.53124706e+02 
334  1249.86  2.32564863e-01 1.72602216e+02 7.51540813e+02 
333  1251.41  2.34045311e-01 1.73109843e+02 7.49935745e+02 
332  1252.96  2.34682769e-01 1.73194826e+02 7.48329924e+02 
331  1254.51  2.35147898e-01 1.73128216e+02 7.46725554e+02 
330  1256.06  2.35282915e-01 1.73063451e+02 7.45122632e+02 
329  1257.61  2.35928990e-01 1.73047382e+02 7.43521152e+02 
328  1259.15  2.37284662e-01 1.73545180e+02 7.41921109e+02 
327  1260.69  2.38664754e-01 1.74092949e+02 7.40405609e+02 
326  1262.23  2.39297008e-01 1.74221043e+02 7.38993431e+02 
325  1263.77  2.39246736e-01 1.73935606e+02 7.37582513e+02 
324  1265.31  2.39852751e-01 1.73912749e+02 7.36172850e+02 
323  1266.85  2.40016606e-01 1.73848547e+02 7.34764439e+02 
322  1268.39  2.40204430e-01 1.73601536e+02 7.33357277e+02 
321  1269.92  2.40777137e-01 1.73689031e+02 7.31951358e+02 
320  1271.46  2.40939270e-01 1.73552157e+02 7.30322520e+02 
319  1272.99  2.40533526e-01 1.72947654e+02 7.28683129e+02 
318  1274.52  2.40828436e-01 1.72787039e+02 7.27045178e+02 
317  1276.05  2.42141978e-01 1.73228745e+02 7.25408663e+02 
316  1277.58  2.41916835e-01 1.72846708e+02 7.23773580e+02 
315  1279.10  2.42238565e-01 1.72647503e+02 7.22139924e+02 
314  1280.63  2.42693182e-01 1.72619432e+02 7.20413442e+02 
313  1282.15  2.42030036e-01 1.71889657e+02 7.18554009e+02 
312  1283.68  2.42095919e-01 1.71485404e+02 7.16696189e+02 
311  1285.20  2.41984170e-01 1.71085399e+02 7.14839977e+02 
310  1286.72  2.41326559e-01 1.70454509e+02 7.12985368e+02 
309  1288.24  2.41374468e-01 1.70014231e+02 7.11132358e+02 
308  1289.75  2.39857295e-01 1.68847043e+02 7.09280942e+02 
307  1291.27  2.39718197e-01 1.68308931e+02 7.07112452e+02 
306  1292.78  2.40913827e-01 1.68579811e+02 7.04883957e+02 
305  1294.30  2.40731740e-01 1.68005878e+02 7.02657367e+02 
304  1295.81  2.40317033e-01 1.67446866e+02 7.00432677e+02 
303  1297.32  2.39847969e-01 1.66716741e+02 6.98209881e+02 
302  1298.83  2.39711552e-01 1.66208264e+02 6.95988974e+02 
301  1300.34  2.38614806e-01 1.65146921e+02 6.93713181e+02 
300  1301.85  2.38934531e-01 1.64810819e+02 6.91244327e+02 
299  1303.35  2.38362029e-01 1.64120843e+02 6.88777558e+02 
298  1304.86  2.37662785e-01 1.63054364e+02 6.86312869e+02 
297  1306.36  2.36841731e-01 1.61884847e+02 6.83850254e+02 
296  1307.86  2.36999450e-01 1.61430068e+02 6.81389707e+02 
295  1309.36  2.36146936e-01 1.60276354e+02 6.78931222e+02 
294  1310.86  2.36469178e-01 1.59832846e+02 6.76124880e+02 
293  1312.36  2.35717862e-01 1.58592575e+02 6.73063650e+02 
292  1313.86  2.35132791e-01 1.57484966e+02 6.70004972e+02 
291  1315.36  2.34466948e-01 1.56308482e+02 6.66948838e+02 
290  1316.85  2.33870901e-01 1.55216832e+02 6.63895240e+02 
289  1318.34  2.32520082e-01 1.53602886e+02 6.60844173e+02 
288  1319.84  2.32382439e-01 1.52807640e+02 6.57795630e+02 
287  1321.33  2.31426784e-01 1.51389809e+02 6.54388747e+02 
286  1322.82  2.30418075e-01 1.49935544e+02 6.50940023e+02 
285  1324.30  2.29952190e-01 1.48836318e+02 6.47494137e+02 
284  1325.79  2.29612978e-01 1.47830356e+02 6.44051079e+02 
283  1327.28  2.28049874e-01 1.46034549e+02 6.40610843e+02 
282  1328.76  2.27465568e-01 1.44900340e+02 6.37173421e+02 
281  1330.25  2.26177107e-01 1.43250611e+02 6.33559183e+02 
280  1331.73  2.25549900e-01 1.41839196e+02 6.29048162e+02 
279  1333.21  2.25082057e-01 1.40528752e+02 6.24540813e+02 
278  1334.69  2.24763311e-01 1.39320479e+02 6.20037125e+02 
277  1336.17  2.23680966e-01 1.37644420e+02 6.15537089e+02 
276  1337.65  2.23024562e-01 1.36236803e+02 6.11040695e+02 
275  1339.12  2.20521295e-01 1.33729278e+02 6.06547936e+02 
274  1340.60  2.22059514e-01 1.33366376e+02 6.00699636e+02 
273  1342.07  2.21929014e-01 1.31536109e+02 5.92866562e+02 
272  1343.55  2.21423379e-01 1.29515874e+02 5.85039786e+02 
271  1345.02  2.17281661e-01 1.25396873e+02 5.77219293e+02 
270  1346.49  2.15184123e-01 1.22481911e+02 5.69405069e+02 
269  1347.96  2.11141014e-01 1.18544210e+02 5.61597098e+02 
268  1349.43  2.06989063e-01 1.14599082e+02 5.53795364e+02 
267  1350.89  2.03421871e-01 1.10865589e+02 5.45070378e+02 
266  1352.36  1.96577113e-01 1.05304191e+02 5.35753704e+02 
265  1353.82  1.91578675e-01 1.00830481e+02 5.26444438e+02 
264  1355.29  1.88699631e-01 9.75736227e+01 5.17142564e+02 
263  1356.75  1.86273943e-01 9.45831261e+01 5.07848062e+02 
262  1358.21  1.81878699e-01 9.06504781e+01 4.98560918e+02 
261  1359.67  1.76592330e-01 8.63819544e+01 4.89281114e+02 
260  1361.13  1.74155703e-01 8.43228829e+01 4.84289339e+02 
259  1362.59  1.71336057e-01 8.23264581e+01 4.80554698e+02 
258  1364.04  1.76390956e-01 8.41001737e+01 4.76822996e+02 
257  1365.50  1.76503834e-01 8.34894356e+01 4.73094225e+02 
256  1366.95  1.76607787e-01 8.28753730e+01 4.69368381e+02 
255  1368.41  1.73955191e-01 8.09796207e+01 4.65645456e+02 
254  1369.86  1.71734244e-01 7.93042192e+01 4.61925444e+02 
253  1371.31  1.71257219e-01 7.85252147e+01 4.58647900e+02 
252  1372.76  1.67433673e-01 7.62443089e+01 4.55420804e+02 
251  1374.21  1.62251497e-01 7.33652843e+01 4.52196223e+02 
250  1375.65  1.53629112e-01 6.89591848e+01 4.48974150e+02 
249  1377.10  1.40933866e-01 6.28089193e+01 4.45754583e+02 
248  1378.55  1.27958079e-01 5.66182863e+01 4.42537514e+02 
247  1379.99  1.14858465e-01 5.04621206e+01 4.39322939e+02 
246  1381.43  1.09400417e-01 4.74482124e+01 4.33722575e+02 
245  1382.87  1.08666999e-01 4.65117592e+01 4.28109376e+02 
244  1384.32  1.12912650e-01 4.76930433e+01 4.22500513e+02 
243  1385.75  1.17937194e-01 4.91575108e+01 4.16895977e+02 
242  1387.19  1.25193534e-01 5.14961443e+01 4.11295759e+02 
241  1388.63  1.28558540e-01 5.21469694e+01 4.05699852e+02 
240  1390.07  1.30723882e-01 5.22912820e+01 4.00078325e+02 
239  1391.50  1.33320163e-01 5.25005640e+01 3.93852340e+02 
238  1392.94  1.30412212e-01 5.05530686e+01 3.87631131e+02 
237  1394.37  1.32338826e-01 5.04698767e+01 3.81414688e+02 
236  1395.80  1.38537041e-01 5.19846915e+01 3.75203004e+02 
235  1397.23  1.37961761e-01 5.08888414e+01 3.68996068e+02 
234  1398.66  1.43211793e-01 5.19552165e+01 3.62793874e+02 
233  1400.09  1.47703479e-01 5.26659819e+01 3.56635698e+02 
232  1401.52  1.47024228e-01 5.16055325e+01 3.51061092e+02 
231  1402.94  1.51152914e-01 5.22090093e+01 3.45490731e+02 
230  1404.37  1.55068086e-01 5.27158592e+01 3.39924608e+02 
229  1405.79  1.53175015e-01 5.12080446e+01 3.34362715e+02 
228  1407.22  1.55765173e-01 5.12071372e+01 3.28805046e+02 
227  1408.64  1.59216066e-01 5.14455392e+01 3.23251594e+02 
226  1410.06  1.63104219e-01 5.18246030e+01 3.17782927e+02 
225  1411.48  1.62659398e-01 5.10857491e+01 3.14117947e+02 
224  1412.90  1.65897641e-01 5.14838677e+01 3.10455741e+02 
223  1414.32  1.66192382e-01 5.09832376e+01 3.06796303e+02 
222  1415.73  1.67384040e-01 5.07328341e+01 3.03139631e+02 
221  1417.15  1.68819727e-01 5.05548725e+01 2.99485719e+02 
220  1418.56  1.72325621e-01 5.09762575e+01 2.95834564e+02 
219  1419.98  1.72754921e-01 5.04654575e+01 2.92186161e+02 
218  1421.39  1.74947095e-01 5.07351637e+01 2.90064755e+02 
217  1422.80  1.75980065e-01 5.06702518e+01 2.87968776e+02 
216  1424.21  1.77957539e-01 5.08653999e+01 2.85874374e+02 
215  1425.62  1.77111245e-01 5.02425318e+01 2.83781546e+02 
214  1427.03  1.79365232e-01 5.05174088e+01 2.81690291e+02 
213  1428.44  1.78689855e-01 4.99555905e+01 2.79600606e+02 
212  1429.84  1.79152998e-01 4.97116466e+01 2.77512489e+02 
211  1431.25  1.77198809e-01 4.89422884e+01 2.76229989e+02 
210  1432.65  1.78154390e-01 4.89853790e+01 2.75049199e+02 
209  1434.06  1.79181532e-01 4.90611200e+01 2.73869293e+02 
208  1435.46  1.80610078e-01 4.92417109e+01 2.72690271e+02 
207  1436.86  1.80448454e-01 4.89776435e+01 2.71512131e+02 
206  1438.26  1.82200257e-01 4.92516370e+01 2.70334873e+02 
205  1439.66  1.81109162e-01 4.87255219e+01 2.69158495e+02 
204  1441.05  1.83471213e-01 4.91992542e+01 2.68216085e+02 
203  1442.45  1.81777177e-01 4.85890001e+01 2.67350135e+02 
202  1443.85  1.82461605e-01 4.86124049e+01 2.66484831e+02 
201  1445.24  1.82165454e-01 4.83787997e+01 2.65620173e+02 
200  1446.64  1.84008046e-01 4.87095276e+01 2.64756161e+02 
199  1448.03  1.83010239e-01 4.82757179e+01 2.63892794e+02 
198  1449.42  1.85603092e-01 4.88122290e+01 2.63030070e+02 
197  1450.81  1.84513716e-01 4.84044292e+01 2.62409279e+02 
196  1452.20  1.85633344e-01 4.86178825e+01 2.61961888e+02 
195  1453.59  1.85601435e-01 4.85211999e+01 2.61514830e+02 
194  1454.97  1.87744167e-01 4.89996300e+01 2.61068105e+02 
193  1456.36  1.86186680e-01 4.85122425e+01 2.60621713e+02 
192  1457.75  1.87472810e-01 4.87712332e+01 2.60175654e+02 
191  1459.13  1.85738714e-01 4.82189413e+01 2.59729928e+02 
190  1460.51  1.86422672e-01 4.83562288e+01 2.59425334e+02 
189  1461.90  1.84236754e-01 4.77755755e+01 2.59358989e+02 
188  1463.28  1.85499345e-01 4.81000570e+01 2.59292694e+02 
187  1464.66  1.83487579e-01 4.75560410e+01 2.59226448e+02 
186  1466.04  1.84671506e-01 4.78551775e+01 2.59160252e+02 
185  1467.41  1.82337815e-01 4.72300752e+01 2.59094104e+02 
