% C0 (TOA Count Rate, /ms) for 4STAR NIR spectrometer (512 channels) derived from (SEE Original files for sources) and recorded on 2018-04-23 13:31:00.
% Langley at MLO and airborne Data outside 2.0x the STD of 501 nm Langley residuals were screened out. 
% Including high Altitude rate spectra, matched to splined stratospheric AOD measured at MLO.
% Averages of c0 from multiple days including: , MLO -av-g-, infl-ig-ht, infl-ig-ht, high- a-lt, high- a-lt, high- a-lt, high- a-lt, high- a-lt, Ames- r-oo. See the list of files below
% 20170605_NIR_C0_refined_Langley_MLO_May2017_averages.dat
% 20170807_NIR_C0_refined_langley_4STARpm.dat
% 20170807_NIR_C0_refined_langley_4STAR_subset_pm.dat
% 20170809_NIR_C0_refined_high_alt_low_m_frompolyfit.dat
% 20170815_NIR_C0_refined_high_alt_low_m_frompolyfit.dat
% 20170818_NIR_C0_refined_high_alt_low_m_frompolyfit.dat
% 20170903_NIR_C0_refined_high_alt_low_m_frompolyfitBonanza.dat
% 20170904_NIR_C0_refined_high_alt_low_m_frompolyfit.dat
% 20171106_NIR_C0_refined_langley_4STARpm.dat
Pix Wavelength C0 C0err
511 949.79 4.75658746e+00 7.46176447e-01 
510 949.79 5.00644930e+00 5.42492971e-01 
509 951.68 5.37600688e+00 5.43351780e-01 
508 953.57 5.43689371e+00 5.31676667e-01 
507 955.46 5.88141744e+00 5.41563316e-01 
506 957.34 5.99348618e+00 5.21195312e-01 
505 959.22 6.46223253e+00 4.97027387e-01 
504 961.10 6.56903970e+00 4.53976047e-01 
503 962.98 7.01853810e+00 3.93067538e-01 
502 964.85 7.04172093e+00 3.32457482e-01 
501 966.72 7.56368309e+00 2.69561706e-01 
500 968.59 7.63265121e+00 2.05118670e-01 
499 970.45 8.04034819e+00 1.81133520e-01 
498 972.32 7.98193841e+00 2.03069745e-01 
497 974.18 8.31238213e+00 2.17489099e-01 
496 976.04 8.24540745e+00 2.08359188e-01 
495 977.89 8.59431154e+00 1.78211094e-01 
494 979.74 8.52309282e+00 1.32601136e-01 
493 981.59 8.82426552e+00 1.05289426e-01 
492 983.44 8.72208350e+00 7.80592825e-02 
491 985.29 8.98568257e+00 6.97666646e-02 
490 987.13 8.79133860e+00 6.27917294e-02 
489 988.97 9.03709586e+00 6.22229136e-02 
488 990.81 8.84973761e+00 5.97835665e-02 
487 992.65 9.02780658e+00 6.48228740e-02 
486 994.48 8.83776663e+00 6.09979501e-02 
485 996.31 8.98245359e+00 6.09007888e-02 
484 998.14 8.72851555e+00 5.55280443e-02 
483 999.97 8.88625177e+00 5.77544737e-02 
482 1001.79 8.59690151e+00 5.49545824e-02 
481 1003.62 8.68007619e+00 5.43276906e-02 
480 1005.44 8.46613563e+00 5.12219688e-02 
479 1007.25 8.71440494e+00 5.05944010e-02 
478 1009.07 8.52992222e+00 4.66730497e-02 
477 1010.88 8.68858586e+00 5.46680918e-02 
476 1012.69 8.43719850e+00 5.01073010e-02 
475 1014.50 8.55479860e+00 4.88966305e-02 
474 1016.31 8.34515222e+00 4.82630704e-02 
473 1018.11 8.49848791e+00 5.15654375e-02 
472 1019.91 8.25916931e+00 4.77363129e-02 
471 1021.71 8.41460761e+00 4.91105599e-02 
470 1023.51 8.19215114e+00 4.61358610e-02 
469 1025.30 8.35597925e+00 4.96177549e-02 
468 1027.09 8.24763090e+00 5.98220147e-02 
467 1028.88 8.41216751e+00 5.92221288e-02 
466 1030.67 8.24872421e+00 6.08571121e-02 
465 1032.46 8.41978907e+00 7.17195425e-02 
464 1034.24 8.26518211e+00 6.94571330e-02 
463 1036.02 8.44549578e+00 7.06344023e-02 
462 1037.80 8.33671310e+00 6.41482532e-02 
461 1039.58 8.53909717e+00 7.24174145e-02 
460 1041.35 8.40109876e+00 6.50443182e-02 
459 1043.12 8.56436283e+00 7.25762642e-02 
458 1044.89 8.47937234e+00 7.18785442e-02 
457 1046.66 8.68969281e+00 7.35727258e-02 
456 1048.43 8.61357724e+00 7.26440797e-02 
455 1050.19 8.83812908e+00 7.21769339e-02 
454 1051.95 8.68904428e+00 6.57563030e-02 
453 1053.71 8.92622669e+00 6.93828808e-02 
452 1055.47 8.75136799e+00 6.80942317e-02 
451 1057.23 8.88735185e+00 6.70966766e-02 
450 1058.98 8.74176566e+00 6.53695240e-02 
449 1060.73 8.92880394e+00 6.68652602e-02 
448 1062.48 8.73534012e+00 7.06183916e-02 
447 1064.23 8.87462870e+00 7.10703459e-02 
446 1065.97 8.57432720e+00 7.32170234e-02 
445 1067.71 8.61136776e+00 6.57064672e-02 
444 1069.46 8.41364548e+00 5.93360983e-02 
443 1071.19 8.51979058e+00 6.27628067e-02 
442 1072.93 8.35437096e+00 6.18325191e-02 
441 1074.67 8.45319817e+00 6.36831006e-02 
440 1076.40 8.25906752e+00 5.77054720e-02 
439 1078.13 8.30643737e+00 5.68123036e-02 
438 1079.86 8.07491728e+00 5.97861447e-02 
437 1081.58 8.15489792e+00 5.86875833e-02 
436 1083.31 8.02797421e+00 6.47590371e-02 
435 1085.03 8.19273025e+00 7.35767065e-02 
434 1086.75 8.12772345e+00 7.65296378e-02 
433 1088.47 8.27660750e+00 7.22127166e-02 
432 1090.19 8.16449540e+00 7.79314680e-02 
431 1091.90 8.27055131e+00 8.39969519e-02 
430 1093.61 8.12934085e+00 8.74501751e-02 
429 1095.33 8.32016079e+00 1.00060181e-01 
428 1097.03 8.34658339e+00 1.25757318e-01 
427 1098.74 8.56479224e+00 1.48759201e-01 
426 1100.45 8.54777524e+00 1.79701822e-01 
425 1102.15 8.81790287e+00 2.03544167e-01 
424 1103.85 8.78389079e+00 2.28580443e-01 
423 1105.55 8.99946635e+00 2.78849251e-01 
422 1107.25 8.91700894e+00 3.39493945e-01 
421 1108.94 9.02736431e+00 4.30810539e-01 
420 1110.64 8.76189470e+00 5.90252821e-01 
419 1112.33 8.69498709e+00 8.36294657e-01 
418 1114.02 8.23175414e+00 1.10218941e+00 
417 1115.70 8.11302276e+00 1.28040334e+00 
416 1117.39 7.81627603e+00 1.36993867e+00 
415 1119.07 7.76626230e+00 1.46099117e+00 
414 1120.76 7.61003796e+00 1.47477768e+00 
413 1122.44 7.62462745e+00 1.54997011e+00 
412 1124.12 7.53317319e+00 1.54008065e+00 
411 1125.79 7.70800469e+00 1.53600049e+00 
410 1127.47 7.81632516e+00 1.47666456e+00 
409 1129.14 8.17267596e+00 1.30581782e+00 
408 1130.81 7.81648525e+00 1.40523328e+00 
407 1132.48 7.71434813e+00 1.46614160e+00 
406 1134.15 7.58828901e+00 1.42543145e+00 
405 1135.81 7.94776871e+00 1.24026640e+00 
404 1137.48 8.45192899e+00 9.31687029e-01 
403 1139.14 8.74137390e+00 8.29246005e-01 
402 1140.80 8.46216644e+00 9.56391817e-01 
401 1142.46 8.34273399e+00 1.17237867e+00 
400 1144.12 8.03828584e+00 1.34461666e+00 
399 1145.77 8.05411558e+00 1.40876718e+00 
398 1147.43 8.06665617e+00 1.28393670e+00 
397 1149.08 8.30828993e+00 1.10526366e+00 
396 1150.73 8.28162267e+00 1.05398456e+00 
395 1152.38 8.54717093e+00 9.59719805e-01 
394 1154.02 8.54757637e+00 8.54846009e-01 
393 1155.67 8.81831545e+00 7.27255001e-01 
392 1157.31 8.74291296e+00 6.07255763e-01 
391 1158.95 8.87285962e+00 5.21838840e-01 
390 1160.59 8.84566689e+00 4.16201839e-01 
389 1162.23 9.01873273e+00 3.44408108e-01 
388 1163.87 8.95086826e+00 2.86922902e-01 
387 1165.50 9.03898995e+00 2.61112291e-01 
386 1167.13 8.93638729e+00 2.29673988e-01 
385 1168.76 9.04673651e+00 1.76432309e-01 
384 1170.39 8.90653699e+00 1.99322173e-01 
383 1172.02 8.90789980e+00 2.09578089e-01 
382 1173.65 8.73739954e+00 2.18873821e-01 
381 1175.27 8.72619488e+00 2.18821469e-01 
380 1176.90 8.62532262e+00 1.75586287e-01 
379 1178.52 8.58230814e+00 2.28626140e-01 
378 1180.14 8.37646626e+00 2.20214052e-01 
377 1181.75 8.35188984e+00 2.20763421e-01 
376 1183.37 8.15662940e+00 1.97609034e-01 
375 1184.99 8.19353092e+00 2.03962568e-01 
374 1186.60 8.08594119e+00 1.88492536e-01 
373 1188.21 8.07369772e+00 1.69774602e-01 
372 1189.82 7.99727285e+00 1.28638434e-01 
371 1191.43 8.18919296e+00 9.65835310e-02 
370 1193.04 8.07862204e+00 8.98433866e-02 
369 1194.64 8.04559537e+00 9.89183848e-02 
368 1196.24 7.85259510e+00 1.15795141e-01 
367 1197.85 7.89929186e+00 1.31521194e-01 
366 1199.45 7.76281141e+00 1.47726592e-01 
365 1201.05 7.83750658e+00 1.62065452e-01 
364 1202.64 7.78483578e+00 1.44133240e-01 
363 1204.24 7.82671821e+00 1.39767768e-01 
362 1205.83 7.75637833e+00 1.08074723e-01 
361 1207.43 7.76423207e+00 9.82733033e-02 
360 1209.02 7.71066040e+00 1.08889681e-01 
359 1210.61 7.84407100e+00 9.95210892e-02 
358 1212.19 7.83246676e+00 8.45721823e-02 
357 1213.78 7.97560552e+00 6.52321925e-02 
356 1215.37 7.90737240e+00 5.31620974e-02 
355 1216.95 7.96885987e+00 4.00671365e-02 
354 1218.53 7.92884883e+00 3.78762823e-02 
353 1220.11 8.00374448e+00 3.60434199e-02 
352 1221.69 7.97239083e+00 2.96689101e-02 
351 1223.27 8.01684320e+00 2.43457871e-02 
350 1224.84 8.00077388e+00 2.74832537e-02 
349 1226.42 8.05811870e+00 2.62064000e-02 
348 1227.99 8.04139408e+00 2.63139701e-02 
347 1229.56 8.16757439e+00 2.62812555e-02 
346 1231.13 8.09611066e+00 2.73584548e-02 
345 1232.70 8.16349123e+00 2.67382059e-02 
344 1234.27 8.11350176e+00 2.87875390e-02 
343 1235.84 8.11531501e+00 3.95948525e-02 
342 1237.40 8.04949949e+00 3.52506808e-02 
341 1238.96 8.04189965e+00 3.60107078e-02 
340 1240.52 7.89508155e+00 3.09363985e-02 
339 1242.08 8.02120354e+00 3.23934143e-02 
338 1243.64 7.98827544e+00 3.27040711e-02 
337 1245.20 8.03170469e+00 3.97978278e-02 
336 1246.75 7.99453891e+00 4.32327174e-02 
335 1248.31 8.05215874e+00 4.12276511e-02 
334 1249.86 7.97199678e+00 3.84107221e-02 
333 1251.41 8.00061888e+00 4.65591081e-02 
332 1252.96 7.92139774e+00 5.39568194e-02 
331 1254.51 7.93273437e+00 6.04765676e-02 
330 1256.06 7.83950169e+00 6.36743625e-02 
329 1257.61 7.79474525e+00 7.56908656e-02 
328 1259.15 7.66574070e+00 9.00332803e-02 
327 1260.69 7.60439321e+00 1.11414593e-01 
326 1262.23 7.46874271e+00 1.34556244e-01 
325 1263.77 7.43163165e+00 1.48990319e-01 
324 1265.31 7.24447328e+00 1.83047803e-01 
323 1266.85 7.25742248e+00 1.91975561e-01 
322 1268.39 7.31923982e+00 1.77121849e-01 
321 1269.92 7.43889848e+00 1.61109566e-01 
320 1271.46 7.61899504e+00 1.06221899e-01 
319 1272.99 7.69607182e+00 8.44962306e-02 
318 1274.52 7.70768463e+00 6.84228165e-02 
317 1276.05 7.78174626e+00 5.99236240e-02 
316 1277.58 7.66509726e+00 4.95103188e-02 
315 1279.10 7.51978087e+00 4.37860688e-02 
314 1280.63 7.46828476e+00 4.28553483e-02 
313 1282.15 7.45895114e+00 5.20801733e-02 
312 1283.68 7.54270303e+00 5.25409810e-02 
311 1285.20 7.71156458e+00 5.29180749e-02 
310 1286.72 7.66333294e+00 5.15599520e-02 
309 1288.24 7.67823158e+00 4.34046299e-02 
308 1289.75 7.58665093e+00 3.90261672e-02 
307 1291.27 7.60148795e+00 3.75398897e-02 
306 1292.78 7.62916596e+00 2.81981820e-02 
305 1294.30 7.64537841e+00 3.52489105e-02 
304 1295.81 7.57320228e+00 4.59022251e-02 
303 1297.32 7.55702751e+00 6.81355807e-02 
302 1298.83 7.49677629e+00 7.26640936e-02 
301 1300.34 7.43520627e+00 1.04147875e-01 
300 1301.85 7.37341661e+00 1.26759470e-01 
299 1303.35 7.33188370e+00 1.44400543e-01 
298 1304.86 7.24185790e+00 1.70900396e-01 
297 1306.36 7.22069729e+00 1.76132198e-01 
296 1307.86 7.17409361e+00 1.99523018e-01 
295 1309.36 7.09752163e+00 2.08745111e-01 
294 1310.86 7.00088839e+00 2.39964765e-01 
293 1312.36 6.92005564e+00 2.39905929e-01 
292 1313.86 6.85806906e+00 2.52180592e-01 
291 1315.36 6.84192734e+00 2.65130579e-01 
290 1316.85 6.79188002e+00 2.95800291e-01 
289 1318.34 6.77345157e+00 3.13168053e-01 
288 1319.84 6.70881631e+00 3.52263432e-01 
287 1321.33 6.71769244e+00 3.46415385e-01 
286 1322.82 6.66165637e+00 3.09290560e-01 
285 1324.30 6.62272621e+00 3.36388582e-01 
284 1325.79 6.48165181e+00 3.91178920e-01 
283 1327.28 6.33617774e+00 4.72670448e-01 
282 1328.76 6.12343578e+00 5.90075432e-01 
281 1330.25 6.03042322e+00 6.40456428e-01 
280 1331.73 5.97315142e+00 6.35637702e-01 
279 1333.21 5.98057476e+00 6.18704042e-01 
278 1334.69 5.97556616e+00 5.72445762e-01 
277 1336.17 5.94425207e+00 5.33903130e-01 
276 1337.65 5.86012487e+00 5.72476432e-01 
275 1339.12 5.79229523e+00 5.51684970e-01 
274 1340.60 5.68293814e+00 6.34411226e-01 
273 1342.07 5.52650754e+00 7.58227792e-01 
272 1343.55 5.32300321e+00 8.57868790e-01 
271 1345.02 4.90199142e+00 1.06797848e+00 
270 1346.49 4.56332953e+00 1.33967383e+00 
269 1347.96 4.32764085e+00 1.31167961e+00 
268 1349.43 3.95004354e+00 1.47931428e+00 
267 1350.89 3.65341074e+00 1.51833644e+00 
266 1352.36 3.19479165e+00 1.63329170e+00 
265 1353.82 2.92662263e+00 1.60016709e+00 
264 1355.29 2.65358410e+00 1.56087377e+00 
263 1356.75 2.47439996e+00 1.53447447e+00 
262 1358.21 2.22439223e+00 1.45233177e+00 
261 1359.67 1.98340391e+00 1.40012405e+00 
260 1361.13 1.87044729e+00 1.36014367e+00 
259 1362.59 1.81774621e+00 1.33429389e+00 
258 1364.04 1.92205736e+00 1.34278589e+00 
257 1365.50 1.90434292e+00 1.34896828e+00 
256 1366.95 1.91849911e+00 1.31852709e+00 
255 1368.41 1.82788129e+00 1.33130995e+00 
254 1369.86 1.84285230e+00 1.31733635e+00 
253 1371.31 1.96711333e+00 1.30484900e+00 
252 1372.76 2.02987007e+00 1.20898805e+00 
251 1374.21 2.09307246e+00 1.19561253e+00 
250 1375.65 2.04956353e+00 1.10245045e+00 
249 1377.10 1.85389730e+00 1.00739238e+00 
248 1378.55 1.60691140e+00 8.99002672e-01 
247 1379.99 1.34528378e+00 8.34380639e-01 
246 1381.43 1.22157955e+00 8.03431043e-01 
245 1382.87 1.22215162e+00 8.61645973e-01 
244 1384.32 1.35742175e+00 8.99458494e-01 
243 1385.75 1.53848064e+00 9.37215454e-01 
242 1387.19 1.76691405e+00 9.67793452e-01 
241 1388.63 1.85616272e+00 9.56946462e-01 
240 1390.07 1.90070152e+00 9.74585502e-01 
239 1391.50 1.88050491e+00 9.87461563e-01 
238 1392.94 1.67989586e+00 9.14342220e-01 
237 1394.37 1.70177418e+00 9.89961957e-01 
236 1395.80 1.86327339e+00 1.02482458e+00 
235 1397.23 1.80541490e+00 1.01398175e+00 
234 1398.66 1.92679278e+00 9.93650739e-01 
233 1400.09 2.02703167e+00 1.06671500e+00 
232 1401.52 1.93540892e+00 1.07934936e+00 
231 1402.94 2.07158678e+00 1.11530257e+00 
230 1404.37 2.17208582e+00 1.11593498e+00 
229 1405.79 2.10948860e+00 1.11993869e+00 
228 1407.22 2.16642738e+00 1.12841068e+00 
227 1408.64 2.28951692e+00 1.16609831e+00 
226 1410.06 2.44112527e+00 1.17358694e+00 
225 1411.48 2.49464448e+00 1.10932537e+00 
224 1412.90 2.59906661e+00 1.17317080e+00 
223 1414.32 2.69195850e+00 1.17851230e+00 
222 1415.73 2.68991759e+00 1.15814815e+00 
221 1417.15 2.75689277e+00 1.10374633e+00 
220 1418.56 2.84263809e+00 1.13782256e+00 
219 1419.98 2.84366546e+00 1.05342992e+00 
218 1421.39 2.92188687e+00 1.05519183e+00 
217 1422.80 3.08326496e+00 9.53457136e-01 
216 1424.21 3.09785224e+00 1.03039814e+00 
215 1425.62 3.10314185e+00 9.84329981e-01 
214 1427.03 3.14854567e+00 1.04617071e+00 
213 1428.44 3.06627503e+00 9.21549571e-01 
212 1429.84 2.88706946e+00 9.98792099e-01 
211 1431.25 2.91992917e+00 8.26825445e-01 
210 1432.65 2.87418394e+00 8.95509411e-01 
209 1434.06 2.85652772e+00 1.03223659e+00 
208 1435.46 3.02702597e+00 8.65589068e-01 
207 1436.86 3.06239036e+00 8.16983911e-01 
206 1438.26 3.07831117e+00 8.40081131e-01 
205 1439.66 3.05952013e+00 8.96244924e-01 
204 1441.05 3.13828700e+00 1.00115476e+00 
203 1442.45 3.10078002e+00 9.49939004e-01 
202 1443.85 3.20090656e+00 7.88572742e-01 
201 1445.24 3.26985577e+00 8.10145155e-01 
200 1446.64 3.33774393e+00 7.90184489e-01 
199 1448.03 3.30251149e+00 7.84588698e-01 
198 1449.42 3.33469613e+00 9.03714824e-01 
197 1450.81 3.41096086e+00 7.30978053e-01 
196 1452.20 3.44558968e+00 7.02182721e-01 
195 1453.59 3.61765338e+00 5.88885511e-01 
194 1454.97 3.79976118e+00 4.98410471e-01 
193 1456.36 3.83212377e+00 4.50733866e-01 
192 1457.75 3.86831820e+00 4.64906013e-01 
191 1459.13 3.82457859e+00 4.69677963e-01 
190 1460.51 3.78404185e+00 5.13092564e-01 
189 1461.90 3.66070393e+00 5.37667066e-01 
188 1463.28 3.61145015e+00 5.88380261e-01 
187 1464.66 3.51240383e+00 6.33827779e-01 
186 1466.04 3.53016748e+00 6.52361207e-01 
185 1467.41 3.39821982e+00 7.05600756e-01 
184 1468.79 3.30210507e+00 8.72291109e-01 
183 1470.17 3.31759293e+00 7.37936510e-01 
182 1471.54 3.31576708e+00 8.18603887e-01 
181 1472.92 3.41283867e+00 6.75851303e-01 
180 1474.29 3.52544605e+00 6.29628061e-01 
179 1475.66 3.53378181e+00 5.75319252e-01 
178 1477.03 3.49013744e+00 5.98309822e-01 
177 1478.40 3.44571071e+00 6.17264309e-01 
176 1479.77 3.51403756e+00 5.81160720e-01 
175 1481.14 3.52646298e+00 5.26313837e-01 
174 1482.51 3.62603368e+00 4.80429700e-01 
173 1483.87 3.59992510e+00 4.60785430e-01 
172 1485.24 3.57497424e+00 4.49279446e-01 
171 1486.60 3.52812252e+00 4.29666441e-01 
170 1487.96 3.59850740e+00 4.03561780e-01 
169 1489.32 3.61375989e+00 3.34298309e-01 
168 1490.68 3.76400404e+00 2.79278640e-01 
167 1492.04 3.76652707e+00 2.46065438e-01 
166 1493.40 3.81071122e+00 2.49680075e-01 
165 1494.76 3.79582457e+00 2.29921844e-01 
164 1496.12 3.83216709e+00 2.08969831e-01 
163 1497.47 3.79897183e+00 1.75354070e-01 
162 1498.83 3.87773860e+00 1.40946918e-01 
161 1500.18 3.74495491e+00 1.31076700e-01 
160 1501.53 3.68315928e+00 1.52254434e-01 
159 1502.89 3.57448125e+00 1.52647433e-01 
158 1504.24 3.60089063e+00 1.50139846e-01 
157 1505.59 3.62788743e+00 1.53907552e-01 
156 1506.93 3.75232563e+00 1.27249178e-01 
155 1508.28 3.79468040e+00 9.76542477e-02 
154 1509.63 3.83807478e+00 9.04444956e-02 
153 1510.97 3.79002118e+00 7.47130334e-02 
152 1512.32 3.84418281e+00 5.65789433e-02 
151 1513.66 3.76090569e+00 5.34459889e-02 
150 1515.00 3.80044416e+00 5.88347808e-02 
149 1516.34 3.75514962e+00 4.92722934e-02 
148 1517.69 3.77555398e+00 4.66670098e-02 
147 1519.02 3.71363056e+00 3.14398271e-02 
146 1520.36 3.73136559e+00 2.54591194e-02 
145 1521.70 3.68092056e+00 1.53380736e-02 
144 1523.04 3.72704262e+00 1.63318558e-02 
143 1524.37 3.67714790e+00 1.52859410e-02 
142 1525.71 3.71448482e+00 1.80018815e-02 
141 1527.04 3.64908175e+00 1.83504929e-02 
140 1528.37 3.67405791e+00 2.08140278e-02 
139 1529.70 3.60240063e+00 2.45505680e-02 
138 1531.03 3.64137426e+00 2.65593126e-02 
137 1532.36 3.58812561e+00 2.73513586e-02 
136 1533.69 3.63181507e+00 2.66130418e-02 
135 1535.02 3.56931026e+00 2.49708618e-02 
134 1536.34 3.60668545e+00 2.11433640e-02 
133 1537.67 3.55061500e+00 1.59097137e-02 
132 1538.99 3.58597462e+00 1.49315505e-02 
131 1540.31 3.52333891e+00 1.36811536e-02 
130 1541.64 3.56571756e+00 1.53607800e-02 
129 1542.96 3.52687706e+00 1.17986946e-02 
128 1544.28 3.56668463e+00 1.48754218e-02 
127 1545.60 3.48463233e+00 1.27892987e-02 
126 1546.91 3.52100790e+00 1.23257925e-02 
125 1548.23 3.43688042e+00 1.27419304e-02 
124 1549.55 3.47761011e+00 1.55609785e-02 
123 1550.86 3.40514929e+00 1.71163828e-02 
122 1552.18 3.43127957e+00 2.17596746e-02 
121 1553.49 3.36169229e+00 2.64079326e-02 
120 1554.80 3.39681815e+00 2.77790274e-02 
119 1556.11 3.32374863e+00 2.11687095e-02 
118 1557.42 3.35953344e+00 1.05722527e-02 
117 1558.73 3.28823050e+00 1.02960988e-02 
116 1560.04 3.31337473e+00 1.09974674e-02 
115 1561.34 3.23031227e+00 1.07765686e-02 
114 1562.65 3.27881506e+00 1.20193677e-02 
113 1563.95 3.19791530e+00 1.44604509e-02 
112 1565.26 3.24715560e+00 1.62474006e-02 
111 1566.56 3.13409731e+00 1.49903846e-02 
110 1567.86 3.14972999e+00 1.78236069e-02 
109 1569.16 3.04218656e+00 2.75974786e-02 
108 1570.46 3.02668484e+00 3.30078657e-02 
107 1571.76 2.92877341e+00 3.68299894e-02 
106 1573.05 2.91474063e+00 3.53832177e-02 
105 1574.35 2.81904198e+00 3.03780618e-02 
104 1575.64 2.84302899e+00 2.88097298e-02 
103 1576.94 2.81423573e+00 2.85960201e-02 
102 1578.23 2.87856640e+00 2.84765446e-02 
101 1579.52 2.85637424e+00 2.53947457e-02 
100 1580.81 2.92736400e+00 2.01019251e-02 
99 1582.10 2.87377031e+00 1.49258196e-02 
98 1583.39 2.93825154e+00 1.48851823e-02 
97 1584.68 2.87229180e+00 1.49085602e-02 
96 1585.97 2.87642212e+00 1.70583142e-02 
95 1587.25 2.77928399e+00 1.46638778e-02 
94 1588.54 2.78871888e+00 1.13612407e-02 
93 1589.82 2.72174124e+00 9.27730694e-03 
92 1591.10 2.80450926e+00 9.31038631e-03 
91 1592.38 2.75734161e+00 1.05033061e-02 
90 1593.66 2.81674527e+00 1.52471099e-02 
89 1594.94 2.74728354e+00 1.43642763e-02 
88 1596.22 2.77614835e+00 1.82790534e-02 
87 1597.50 2.69391400e+00 1.97243234e-02 
86 1598.77 2.70482176e+00 2.28342654e-02 
85 1600.05 2.61311409e+00 2.93506629e-02 
84 1601.32 2.63189861e+00 3.19095731e-02 
83 1602.59 2.55478020e+00 3.42883102e-02 
82 1603.86 2.61439870e+00 3.01468789e-02 
81 1605.13 2.51432348e+00 2.81063917e-02 
80 1606.40 2.56640599e+00 2.82339468e-02 
79 1607.67 2.47632064e+00 2.87401758e-02 
78 1608.94 2.51464267e+00 3.12213036e-02 
77 1610.20 2.46171244e+00 2.66909732e-02 
76 1611.47 2.52785885e+00 2.36318384e-02 
75 1612.73 2.47641841e+00 1.91348060e-02 
74 1614.00 2.52304152e+00 1.68069075e-02 
73 1615.26 2.45123116e+00 1.44952206e-02 
72 1616.52 2.47206987e+00 1.68655977e-02 
71 1617.78 2.37272123e+00 1.42447605e-02 
