% C0 (TOA Count Rate, /ms) for 4STAR VIS spectrometer (1044 channels) derived from 4STAR_20170904starsun.mat and recorded on 2018-04-13 16:39:15.
% Using a high altitude AOD spectra, which has been polyfit to extrapolate to problematic wavelengths, calculating the c0 from the AOD at low airmass. 
Pix Wavelength C0 C0err
0 173.18 0.00000000e+00 0.00000000e+00 
1 173.98 -1.00000000e+00 0.00000000e+00 
2 174.77 -1.00000000e+00 0.00000000e+00 
3 175.56 -1.00000000e+00 0.00000000e+00 
4 176.36 -1.00000000e+00 0.00000000e+00 
5 177.15 -1.00000000e+00 0.00000000e+00 
6 177.94 -1.00000000e+00 0.00000000e+00 
7 178.74 -1.00000000e+00 0.00000000e+00 
8 179.53 -1.00000000e+00 0.00000000e+00 
9 180.33 -1.00000000e+00 0.00000000e+00 
10 181.12 -1.00000000e+00 0.00000000e+00 
11 181.92 -1.00000000e+00 0.00000000e+00 
12 182.71 -1.00000000e+00 0.00000000e+00 
13 183.51 -1.00000000e+00 0.00000000e+00 
14 184.30 -1.00000000e+00 0.00000000e+00 
15 185.10 -1.00000000e+00 0.00000000e+00 
16 185.89 -1.00000000e+00 0.00000000e+00 
17 186.69 -1.00000000e+00 0.00000000e+00 
18 187.49 -1.00000000e+00 0.00000000e+00 
19 188.28 -1.00000000e+00 0.00000000e+00 
20 189.08 -1.00000000e+00 0.00000000e+00 
21 189.88 -1.00000000e+00 0.00000000e+00 
22 190.67 -1.00000000e+00 0.00000000e+00 
23 191.47 -1.00000000e+00 0.00000000e+00 
24 192.27 -1.00000000e+00 0.00000000e+00 
25 193.07 -1.00000000e+00 0.00000000e+00 
26 193.86 -1.00000000e+00 0.00000000e+00 
27 194.66 -1.00000000e+00 0.00000000e+00 
28 195.46 -1.00000000e+00 0.00000000e+00 
29 196.26 -1.00000000e+00 0.00000000e+00 
30 197.05 -1.00000000e+00 0.00000000e+00 
31 197.85 -1.00000000e+00 0.00000000e+00 
32 198.65 -1.00000000e+00 0.00000000e+00 
33 199.45 -1.00000000e+00 0.00000000e+00 
34 200.25 -1.00000000e+00 0.00000000e+00 
35 201.05 -1.00000000e+00 0.00000000e+00 
36 201.85 -1.00000000e+00 0.00000000e+00 
37 202.65 -1.00000000e+00 0.00000000e+00 
38 203.44 -1.00000000e+00 0.00000000e+00 
39 204.24 -1.00000000e+00 0.00000000e+00 
40 205.04 -1.00000000e+00 0.00000000e+00 
41 205.84 -1.00000000e+00 0.00000000e+00 
42 206.64 -1.00000000e+00 0.00000000e+00 
43 207.44 -1.00000000e+00 0.00000000e+00 
44 208.24 -1.00000000e+00 0.00000000e+00 
45 209.04 -1.00000000e+00 0.00000000e+00 
46 209.84 -1.00000000e+00 0.00000000e+00 
47 210.64 -1.00000000e+00 0.00000000e+00 
48 211.44 -1.00000000e+00 0.00000000e+00 
49 212.24 -1.00000000e+00 0.00000000e+00 
50 213.04 -1.00000000e+00 0.00000000e+00 
51 213.85 -1.00000000e+00 0.00000000e+00 
52 214.65 -1.00000000e+00 0.00000000e+00 
53 215.45 -1.00000000e+00 0.00000000e+00 
54 216.25 -1.00000000e+00 0.00000000e+00 
55 217.05 -1.00000000e+00 0.00000000e+00 
56 217.85 -1.00000000e+00 0.00000000e+00 
57 218.65 -1.00000000e+00 0.00000000e+00 
58 219.46 -1.00000000e+00 0.00000000e+00 
59 220.26 -1.00000000e+00 0.00000000e+00 
60 221.06 -1.00000000e+00 0.00000000e+00 
61 221.86 -1.00000000e+00 0.00000000e+00 
62 222.66 -1.00000000e+00 0.00000000e+00 
63 223.47 -1.00000000e+00 0.00000000e+00 
64 224.27 -1.00000000e+00 -1.00000000e+00 
65 225.07 -1.00000000e+00 -1.00000000e+00 
66 225.87 -1.00000000e+00 -1.00000000e+00 
67 226.68 1.71254070e+35 -1.00000000e+00 
68 227.48 5.39062971e+33 -1.00000000e+00 
69 228.28 2.16550259e+32 -1.00000000e+00 
70 229.08 1.58783424e+31 -1.00000000e+00 
71 229.89 3.32032111e+30 -1.00000000e+00 
72 230.69 3.11191439e+30 -1.00000000e+00 
73 231.49 1.42464026e+31 -1.00000000e+00 
74 232.30 2.38031923e+32 -1.00000000e+00 
75 233.10 8.66830684e+33 -1.00000000e+00 
76 233.90 -1.00000000e+00 -1.00000000e+00 
77 234.71 -1.00000000e+00 -1.00000000e+00 
78 235.51 -1.00000000e+00 -1.00000000e+00 
79 236.32 -1.00000000e+00 -1.00000000e+00 
80 237.12 -1.00000000e+00 0.00000000e+00 
81 237.92 -1.00000000e+00 0.00000000e+00 
82 238.73 -1.00000000e+00 0.00000000e+00 
83 239.53 -1.00000000e+00 0.00000000e+00 
84 240.34 -1.00000000e+00 0.00000000e+00 
85 241.14 -1.00000000e+00 0.00000000e+00 
86 241.94 -1.00000000e+00 0.00000000e+00 
87 242.75 -1.00000000e+00 0.00000000e+00 
88 243.55 -1.00000000e+00 0.00000000e+00 
89 244.36 -1.00000000e+00 0.00000000e+00 
90 245.16 -1.00000000e+00 0.00000000e+00 
91 245.97 -1.00000000e+00 0.00000000e+00 
92 246.77 -1.00000000e+00 0.00000000e+00 
93 247.58 -1.00000000e+00 0.00000000e+00 
94 248.38 -1.00000000e+00 0.00000000e+00 
95 249.19 -1.00000000e+00 0.00000000e+00 
96 249.99 -1.00000000e+00 0.00000000e+00 
97 250.80 -1.00000000e+00 0.00000000e+00 
98 251.60 -1.00000000e+00 0.00000000e+00 
99 252.41 -1.00000000e+00 0.00000000e+00 
100 253.21 -1.00000000e+00 0.00000000e+00 
101 254.02 -1.00000000e+00 0.00000000e+00 
102 254.82 -1.00000000e+00 0.00000000e+00 
103 255.63 -1.00000000e+00 0.00000000e+00 
104 256.44 -1.00000000e+00 0.00000000e+00 
105 257.24 -1.00000000e+00 0.00000000e+00 
106 258.05 -1.00000000e+00 0.00000000e+00 
107 258.85 -1.00000000e+00 0.00000000e+00 
108 259.66 -1.00000000e+00 0.00000000e+00 
109 260.46 -1.00000000e+00 0.00000000e+00 
110 261.27 -1.00000000e+00 0.00000000e+00 
111 262.08 -1.00000000e+00 0.00000000e+00 
112 262.88 -1.00000000e+00 0.00000000e+00 
113 263.69 -1.00000000e+00 0.00000000e+00 
114 264.49 -1.00000000e+00 0.00000000e+00 
115 265.30 -1.00000000e+00 0.00000000e+00 
116 266.11 -1.00000000e+00 0.00000000e+00 
117 266.91 -1.00000000e+00 0.00000000e+00 
118 267.72 -1.00000000e+00 0.00000000e+00 
119 268.53 -1.00000000e+00 0.00000000e+00 
120 269.33 -1.00000000e+00 0.00000000e+00 
121 270.14 -1.00000000e+00 0.00000000e+00 
122 270.95 -1.00000000e+00 0.00000000e+00 
123 271.75 -1.00000000e+00 0.00000000e+00 
124 272.56 -1.00000000e+00 -1.00000000e+00 
125 273.37 -1.00000000e+00 -1.00000000e+00 
126 274.17 -1.00000000e+00 -1.00000000e+00 
127 274.98 7.33872296e+34 -1.00000000e+00 
128 275.79 9.83730445e+32 -1.00000000e+00 
129 276.59 1.52610939e+31 -1.00000000e+00 
130 277.40 2.52361489e+29 -1.00000000e+00 
131 278.21 4.02920218e+27 -1.00000000e+00 
132 279.01 7.19764284e+25 -1.00000000e+00 
133 279.82 1.44125492e+24 -1.00000000e+00 
134 280.63 2.83091746e+22 -1.00000000e+00 
135 281.43 6.12180982e+20 -1.00000000e+00 
136 282.24 1.83531536e+19 -1.00000000e+00 
137 283.05 7.45734622e+17 -1.00000000e+00 
138 283.86 3.57063953e+16 3.20526902e+16 
139 284.66 1.73115650e+15 1.43690359e+15 
140 285.47 1.04353419e+14 8.05701891e+13 
141 286.28 8.66567848e+12 6.21183395e+12 
142 287.09 8.00154190e+11 5.34580527e+11 
143 287.89 7.49515080e+10 4.56112497e+10 
144 288.70 8.39358413e+09 4.69608704e+09 
145 289.51 1.20348083e+09 6.16841344e+08 
146 290.32 2.05068032e+08 9.70471040e+07 
147 291.12 3.81811600e+07 1.63350370e+07 
148 291.93 7.68727100e+06 3.05540950e+06 
149 292.74 1.81925588e+06 6.52131813e+05 
150 293.55 4.85798781e+05 1.56357828e+05 
151 294.35 1.47110547e+05 4.40677148e+04 
152 295.16 4.92546680e+04 1.32589180e+04 
153 295.97 1.79852129e+04 4.39721875e+03 
154 296.78 7.06445068e+03 1.57720508e+03 
155 297.58 3.01659058e+03 6.11462952e+02 
156 298.39 1.40926648e+03 2.55321609e+02 
157 299.20 7.22972717e+02 1.17660233e+02 
158 300.01 3.95190552e+02 6.09050865e+01 
159 300.81 2.30668716e+02 3.23938370e+01 
160 301.62 1.41064529e+02 1.78742504e+01 
161 302.43 9.17416687e+01 1.03923006e+01 
162 303.24 6.25668564e+01 6.56179094e+00 
163 304.04 4.43533020e+01 4.42044783e+00 
164 304.85 3.23536186e+01 2.84814477e+00 
165 305.66 2.44357510e+01 2.05847716e+00 
166 306.47 1.90984745e+01 1.43460906e+00 
167 307.28 1.50070028e+01 1.07798505e+00 
168 308.08 1.24821348e+01 8.37419391e-01 
169 308.89 1.04446917e+01 6.73808098e-01 
170 309.70 8.70483208e+00 5.11929214e-01 
171 310.51 7.60525322e+00 4.25193429e-01 
172 311.32 6.59220648e+00 3.31532419e-01 
173 312.12 5.72835970e+00 2.85640508e-01 
174 312.93 5.12374115e+00 2.14114919e-01 
175 313.74 4.62238646e+00 1.66247711e-01 
176 314.55 4.26706123e+00 1.79768816e-01 
177 315.36 3.96746254e+00 1.56823546e-01 
178 316.16 3.75227308e+00 1.45381048e-01 
179 316.97 3.57989001e+00 1.31816506e-01 
180 317.78 3.35585690e+00 1.21372603e-01 
181 318.59 3.22192597e+00 1.09203175e-01 
182 319.40 3.12543774e+00 1.05629958e-01 
183 320.20 3.00767660e+00 9.59832370e-02 
184 321.01 2.89128447e+00 9.26102996e-02 
185 321.82 2.85605741e+00 8.25439095e-02 
186 322.63 2.83061838e+00 8.62340480e-02 
187 323.43 2.74828529e+00 8.58864635e-02 
188 324.24 2.70322251e+00 8.05618912e-02 
189 325.05 2.70334768e+00 7.02754408e-02 
190 325.86 2.67036486e+00 7.18921125e-02 
191 326.67 2.62687898e+00 6.17013462e-02 
192 327.48 2.65611863e+00 6.14701323e-02 
193 328.28 2.65575457e+00 6.40888810e-02 
194 329.09 2.65772343e+00 6.01202510e-02 
195 329.90 2.66847014e+00 6.24878183e-02 
196 330.71 2.75694823e+00 5.73878586e-02 
197 331.52 2.83528948e+00 5.99039011e-02 
198 332.32 3.01788449e+00 5.91156483e-02 
199 333.13 3.33914375e+00 6.05499223e-02 
200 333.94 3.97250223e+00 5.91253154e-02 
201 334.75 4.89374304e+00 6.22581877e-02 
202 335.55 6.18470716e+00 6.71036243e-02 
203 336.36 7.98676682e+00 7.26252347e-02 
204 337.17 1.07709684e+01 7.70252943e-02 
205 337.98 1.44687262e+01 8.47225413e-02 
206 338.79 1.87893238e+01 9.71637741e-02 
207 339.60 2.35190411e+01 1.04635090e-01 
208 340.40 2.76244717e+01 1.11669742e-01 
209 341.21 3.12235298e+01 1.22689858e-01 
210 342.02 3.55671501e+01 1.21391296e-01 
211 342.83 3.89844017e+01 1.33965179e-01 
212 343.63 3.96833992e+01 1.36699349e-01 
213 344.44 4.15449867e+01 1.39029279e-01 
214 345.25 4.61993904e+01 1.42624080e-01 
215 346.06 5.01814194e+01 1.46994263e-01 
216 346.87 5.28085556e+01 1.54980659e-01 
217 347.67 5.46953087e+01 1.61821112e-01 
218 348.48 5.66779518e+01 1.59094349e-01 
219 349.29 6.04300499e+01 1.63318560e-01 
220 350.10 6.62958527e+01 1.67065352e-01 
221 350.90 6.96920624e+01 1.70300871e-01 
222 351.71 6.97046661e+01 1.76149145e-01 
223 352.52 7.17347031e+01 1.74351916e-01 
224 353.33 7.86547623e+01 1.83994398e-01 
225 354.14 8.61178970e+01 1.98113903e-01 
226 354.94 8.89559937e+01 1.94793776e-01 
227 355.75 8.69232407e+01 2.01477066e-01 
228 356.56 8.19217300e+01 1.80241495e-01 
229 357.37 7.74154663e+01 1.88564315e-01 
230 358.18 7.75760498e+01 1.79926887e-01 
231 358.98 8.83532028e+01 1.95174187e-01 
232 359.79 1.00444061e+02 2.04691395e-01 
233 360.60 1.00885094e+02 2.02182665e-01 
234 361.41 1.00274101e+02 2.06399649e-01 
235 362.21 1.06417213e+02 2.10891843e-01 
236 363.02 1.12371422e+02 2.21579671e-01 
237 363.83 1.15995132e+02 2.31090099e-01 
238 364.64 1.22338501e+02 2.32301876e-01 
239 365.44 1.33680618e+02 2.49580592e-01 
240 366.25 1.42230118e+02 2.52758652e-01 
241 367.06 1.42633041e+02 2.60204047e-01 
242 367.87 1.40624878e+02 2.40358427e-01 
243 368.67 1.43659683e+02 2.47620255e-01 
244 369.48 1.49756470e+02 2.51083523e-01 
245 370.29 1.50313629e+02 2.56736487e-01 
246 371.10 1.48647781e+02 2.55739659e-01 
247 371.90 1.44465363e+02 2.47759134e-01 
248 372.71 1.36245483e+02 2.29763478e-01 
249 373.52 1.29333801e+02 2.27752075e-01 
250 374.33 1.30105118e+02 2.23011196e-01 
251 375.13 1.40121552e+02 2.29073107e-01 
252 375.94 1.52399811e+02 2.44609997e-01 
253 376.75 1.65887451e+02 2.55203187e-01 
254 377.56 1.81057724e+02 2.70583987e-01 
255 378.36 1.82774506e+02 2.61397839e-01 
256 379.17 1.72910004e+02 2.75445580e-01 
257 379.98 1.70900803e+02 2.69270182e-01 
258 380.78 1.69938187e+02 2.59102106e-01 
259 381.59 1.52910324e+02 2.42200449e-01 
260 382.40 1.30411392e+02 2.18349993e-01 
261 383.20 1.22632217e+02 2.14102238e-01 
262 384.01 1.35601425e+02 2.22787306e-01 
263 384.82 1.52448807e+02 2.39675939e-01 
264 385.63 1.58086655e+02 2.50618219e-01 
265 386.43 1.59497803e+02 2.44076818e-01 
266 387.24 1.60658081e+02 2.52079993e-01 
267 388.05 1.63780975e+02 2.52088666e-01 
268 388.85 1.74989944e+02 2.56763130e-01 
269 389.66 1.91402496e+02 2.74816811e-01 
270 390.47 2.03485855e+02 2.89124012e-01 
271 391.27 2.02755798e+02 2.81458527e-01 
272 392.08 1.77815308e+02 2.58579582e-01 
273 392.89 1.44341202e+02 2.30444387e-01 
274 393.69 1.42487534e+02 2.32960507e-01 
275 394.50 1.72829285e+02 2.53860116e-01 
276 395.31 1.88752792e+02 2.62017101e-01 
277 396.11 1.72457214e+02 2.49756396e-01 
278 396.92 1.67216110e+02 2.51050800e-01 
279 397.73 2.02868408e+02 2.78959900e-01 
280 398.53 2.47832214e+02 3.13112289e-01 
281 399.34 2.73917206e+02 3.31976622e-01 
282 400.15 2.86760010e+02 3.14524740e-01 
283 400.95 2.96637543e+02 3.43335181e-01 
284 401.76 3.04102631e+02 3.46537262e-01 
285 402.57 3.05626282e+02 3.46502483e-01 
286 403.37 3.03800171e+02 3.24271053e-01 
287 404.18 3.02682037e+02 3.26598912e-01 
288 404.99 3.01443817e+02 3.36169064e-01 
289 405.79 3.00137878e+02 3.32292438e-01 
290 406.60 3.01744568e+02 3.35445493e-01 
291 407.40 3.10328094e+02 3.44223857e-01 
292 408.21 3.22130096e+02 3.72889191e-01 
293 409.02 3.25105591e+02 3.47375274e-01 
294 409.82 3.20675751e+02 3.51464510e-01 
295 410.63 3.26728180e+02 3.71286571e-01 
296 411.43 3.41562988e+02 3.74933273e-01 
297 412.24 3.49325653e+02 3.70020568e-01 
298 413.05 3.49642517e+02 3.74495476e-01 
299 413.85 3.49626709e+02 3.93583000e-01 
300 414.66 3.50138641e+02 3.77367914e-01 
301 415.46 3.51543945e+02 3.77874851e-01 
302 416.27 3.51266449e+02 3.68958771e-01 
303 417.08 3.45855194e+02 3.68865848e-01 
304 417.88 3.39865814e+02 3.56441796e-01 
305 418.69 3.37653961e+02 3.49791557e-01 
306 419.49 3.38573639e+02 3.53743494e-01 
307 420.30 3.43243225e+02 3.67898464e-01 
308 421.11 3.46367340e+02 3.63370746e-01 
309 421.91 3.41989227e+02 3.56846839e-01 
310 422.72 3.35959564e+02 3.55404317e-01 
311 423.52 3.36325378e+02 3.49951118e-01 
312 424.33 3.39719879e+02 3.40991825e-01 
313 425.13 3.41314575e+02 3.45826685e-01 
314 425.94 3.40970825e+02 3.51526588e-01 
315 426.74 3.39925690e+02 3.42402726e-01 
316 427.55 3.38815155e+02 3.23868781e-01 
317 428.36 3.33556946e+02 3.42268705e-01 
318 429.16 3.18566162e+02 3.37863803e-01 
319 429.96 3.05009644e+02 3.12733352e-01 
320 430.77 3.16770416e+02 3.21458876e-01 
321 431.58 3.52266602e+02 3.48429948e-01 
322 432.38 3.84142273e+02 3.74437153e-01 
323 433.19 3.97632660e+02 3.79631698e-01 
324 433.99 4.06131927e+02 3.91580731e-01 
325 434.80 4.23760712e+02 4.05327916e-01 
326 435.60 4.46847992e+02 4.12043989e-01 
327 436.41 4.60531036e+02 4.25119549e-01 
328 437.21 4.58587433e+02 4.27490205e-01 
329 438.02 4.52535736e+02 4.04844195e-01 
330 438.82 4.56769745e+02 4.04194415e-01 
331 439.63 4.71539856e+02 4.28740889e-01 
332 440.43 4.91653015e+02 4.35746729e-01 
333 441.24 5.12544189e+02 4.62035388e-01 
334 442.04 5.30691101e+02 4.66990203e-01 
335 442.85 5.42603577e+02 4.93949592e-01 
336 443.65 5.49748413e+02 4.63585883e-01 
337 444.45 5.52229919e+02 4.73115176e-01 
338 445.26 5.51786316e+02 4.67804253e-01 
339 446.06 5.57440063e+02 4.98307258e-01 
340 446.87 5.71754456e+02 4.91397500e-01 
341 447.67 5.87929382e+02 5.02334356e-01 
342 448.48 6.00166077e+02 4.99752283e-01 
343 449.28 6.12570984e+02 5.35218000e-01 
344 450.09 6.26204102e+02 5.32922745e-01 
345 450.89 6.32832214e+02 5.10576189e-01 
346 451.70 6.25816711e+02 5.43651581e-01 
347 452.50 6.13964722e+02 5.12874007e-01 
348 453.30 6.10107605e+02 5.08477628e-01 
349 454.11 6.15093079e+02 4.81139868e-01 
350 454.91 6.25251892e+02 5.23805618e-01 
351 455.72 6.35884644e+02 5.42235076e-01 
352 456.52 6.44443726e+02 5.21847069e-01 
353 457.32 6.47526489e+02 5.32903969e-01 
354 458.13 6.46036194e+02 5.38447857e-01 
355 458.93 6.45666748e+02 5.27839601e-01 
356 459.74 6.50860535e+02 5.39564788e-01 
357 460.54 6.60209778e+02 5.25215507e-01 
358 461.34 6.69781982e+02 5.53204775e-01 
359 462.15 6.75528992e+02 5.50777256e-01 
360 462.95 6.74996765e+02 5.40386558e-01 
361 463.76 6.70234741e+02 5.25028586e-01 
362 464.56 6.66002502e+02 5.25114894e-01 
363 465.36 6.63051941e+02 5.38918734e-01 
364 466.17 6.61592896e+02 5.18444180e-01 
365 466.97 6.62863770e+02 5.40500522e-01 
366 467.77 6.66944275e+02 5.19586086e-01 
367 468.58 6.70722107e+02 5.41410863e-01 
368 469.38 6.70923340e+02 5.44488609e-01 
369 470.18 6.72206116e+02 5.62617421e-01 
370 470.99 6.80251831e+02 5.67161441e-01 
371 471.79 6.90844116e+02 5.51891327e-01 
372 472.59 6.99279907e+02 5.61886549e-01 
373 473.40 7.05282410e+02 5.53936481e-01 
374 474.20 7.09433472e+02 5.74266374e-01 
375 475.00 7.11813293e+02 5.66547096e-01 
376 475.81 7.13800720e+02 5.55791736e-01 
377 476.61 7.18665466e+02 5.41160703e-01 
378 477.41 7.26285217e+02 5.66745460e-01 
379 478.21 7.33284485e+02 5.41865110e-01 
380 479.02 7.37945007e+02 5.54822266e-01 
381 479.82 7.40982361e+02 5.39432228e-01 
382 480.62 7.44443481e+02 5.46284020e-01 
383 481.43 7.45791260e+02 5.54671645e-01 
384 482.23 7.43764465e+02 5.79355001e-01 
385 483.03 7.37442566e+02 5.29266715e-01 
386 483.84 7.24417114e+02 5.57744384e-01 
387 484.64 6.99229370e+02 5.42082846e-01 
388 485.44 6.70000427e+02 5.20565331e-01 
389 486.24 6.55921265e+02 5.11276960e-01 
390 487.04 6.62754028e+02 5.34630239e-01 
391 487.85 6.83228699e+02 5.38131833e-01 
392 488.65 7.05300964e+02 5.18789053e-01 
393 489.45 7.19608704e+02 5.10887623e-01 
394 490.26 7.23345886e+02 5.39045334e-01 
395 491.06 7.19330750e+02 5.24088621e-01 
396 491.86 7.14202942e+02 5.37347198e-01 
397 492.66 7.14788452e+02 5.27989507e-01 
398 493.46 7.22474426e+02 5.23098171e-01 
399 494.27 7.30290405e+02 5.38137436e-01 
400 495.07 7.34132263e+02 5.53929746e-01 
401 495.87 7.35522095e+02 5.37047625e-01 
402 496.67 7.32080078e+02 5.41622460e-01 
403 497.48 7.26345398e+02 5.29797435e-01 
404 498.28 7.21006592e+02 5.23260474e-01 
405 499.08 7.14199585e+02 5.19872963e-01 
406 499.88 7.06328552e+02 5.06966650e-01 
407 500.68 6.99821960e+02 5.29986501e-01 
408 501.48 6.97381836e+02 5.13104916e-01 
409 502.29 7.00115479e+02 5.21674812e-01 
410 503.09 7.04597168e+02 5.22523463e-01 
411 503.89 7.10832397e+02 5.15758753e-01 
412 504.69 7.18606506e+02 5.45151174e-01 
413 505.49 7.24271057e+02 5.25962830e-01 
414 506.29 7.24425781e+02 5.31430006e-01 
415 507.09 7.20077087e+02 5.12013972e-01 
416 507.90 7.16440308e+02 5.19157767e-01 
417 508.70 7.15696594e+02 5.22027791e-01 
418 509.50 7.17134705e+02 5.31906366e-01 
419 510.30 7.19051575e+02 5.29091835e-01 
420 511.10 7.17847656e+02 5.28858781e-01 
421 511.90 7.12801941e+02 5.30669332e-01 
422 512.71 7.04882935e+02 5.06455839e-01 
423 513.51 6.96837158e+02 5.03765047e-01 
424 514.31 6.90655823e+02 5.12112260e-01 
425 515.11 6.79556335e+02 5.11820316e-01 
426 515.91 6.60798401e+02 5.22470474e-01 
427 516.71 6.43131165e+02 5.07126391e-01 
428 517.51 6.34610291e+02 4.99144167e-01 
429 518.31 6.41128174e+02 4.90022123e-01 
430 519.11 6.57779907e+02 4.92578775e-01 
431 519.91 6.73814575e+02 5.12893260e-01 
432 520.71 6.85182739e+02 5.12435853e-01 
433 521.52 6.89395264e+02 4.87796009e-01 
434 522.32 6.92172668e+02 5.06789804e-01 
435 523.12 6.97723999e+02 5.02605319e-01 
436 523.92 7.02813660e+02 5.12872517e-01 
437 524.72 7.01605591e+02 5.11230648e-01 
438 525.52 6.90246216e+02 5.01299500e-01 
439 526.32 6.77973328e+02 5.01675010e-01 
440 527.12 6.77414063e+02 4.99638438e-01 
441 527.92 6.88409668e+02 4.92466271e-01 
442 528.72 7.04051331e+02 5.15586734e-01 
443 529.52 7.16581238e+02 5.13526499e-01 
444 530.32 7.21660278e+02 5.07178128e-01 
445 531.12 7.18190613e+02 5.11570454e-01 
446 531.92 7.11098022e+02 5.12790680e-01 
447 532.72 7.05303406e+02 5.23852050e-01 
448 533.52 7.05618408e+02 4.94398326e-01 
449 534.32 7.12063232e+02 5.07570684e-01 
450 535.12 7.17353577e+02 5.23558438e-01 
451 535.92 7.17560364e+02 5.02116442e-01 
452 536.72 7.15481567e+02 5.23960412e-01 
453 537.52 7.12254089e+02 4.93140757e-01 
454 538.32 7.07443359e+02 5.01700044e-01 
455 539.12 7.00978882e+02 5.07677376e-01 
456 539.92 6.95542847e+02 4.96706784e-01 
457 540.72 6.94404724e+02 5.02586246e-01 
458 541.52 6.97341431e+02 5.11607587e-01 
459 542.32 7.03041077e+02 5.13225138e-01 
460 543.12 7.08432678e+02 5.12510359e-01 
461 543.92 7.12290955e+02 5.31328082e-01 
462 544.72 7.14750366e+02 5.32525003e-01 
463 545.52 7.14346191e+02 5.10081112e-01 
464 546.32 7.10733704e+02 5.24050534e-01 
465 547.12 7.06610168e+02 5.10186195e-01 
466 547.91 7.04528687e+02 5.01672626e-01 
