% C0 (TOA Count Rate, /ms) for 4STAR NIR spectrometer (512 channels) derived from 4STAR_20170530starsun.mat and recorded on 2017-05-30 16:27:13.
% Data outside 2.0x the STD of 501 nm Langley residuals were screened out. For instrument:4STAR
Pix Wavelength C0 C0err
511 949.79 4.77325678e+00 1.43197700e-01 
510 949.79 4.98394823e+00 1.49518445e-01 
509 951.68 5.36893272e+00 1.61067978e-01 
508 953.57 5.43899727e+00 1.63169920e-01 
507 955.46 5.89425564e+00 1.76827669e-01 
506 957.34 6.02454185e+00 1.80736259e-01 
505 959.22 6.52034426e+00 1.95610330e-01 
504 961.10 6.64691305e+00 1.99407399e-01 
503 962.98 7.11030149e+00 2.13309050e-01 
502 964.85 7.14989758e+00 2.14496925e-01 
501 966.72 7.69216204e+00 2.30764866e-01 
500 968.59 7.73377132e+00 2.32013136e-01 
499 970.45 8.14166451e+00 2.44249940e-01 
498 972.32 8.07657623e+00 2.42297292e-01 
497 974.18 8.39772606e+00 2.51931787e-01 
496 976.04 8.33112240e+00 2.49933675e-01 
495 977.89 8.69288921e+00 2.60786682e-01 
494 979.74 8.61659431e+00 2.58497834e-01 
493 981.59 8.92700100e+00 2.67810017e-01 
492 983.44 8.82761192e+00 2.64828354e-01 
491 985.29 9.08889961e+00 2.72666991e-01 
490 987.13 8.87578869e+00 2.66273648e-01 
489 988.97 9.12188053e+00 2.73656428e-01 
488 990.81 8.93236160e+00 2.67970860e-01 
487 992.65 9.10881424e+00 2.73264438e-01 
486 994.48 8.91415882e+00 2.67424762e-01 
485 996.31 9.03739262e+00 2.71121770e-01 
484 998.14 8.78561974e+00 2.63568580e-01 
483 999.97 8.94864082e+00 2.68459231e-01 
482 1001.79 8.66673565e+00 2.60002077e-01 
481 1003.62 8.75213909e+00 2.62564182e-01 
480 1005.44 8.53862667e+00 2.56158799e-01 
479 1007.25 8.77671528e+00 2.63301462e-01 
478 1009.07 8.58827209e+00 2.57648170e-01 
477 1010.88 8.73748016e+00 2.62124419e-01 
476 1012.69 8.48418522e+00 2.54525542e-01 
475 1014.50 8.59265327e+00 2.57779598e-01 
474 1016.31 8.39866447e+00 2.51959920e-01 
473 1018.11 8.53732967e+00 2.56119877e-01 
472 1019.91 8.30302429e+00 2.49090731e-01 
471 1021.71 8.44795609e+00 2.53438681e-01 
470 1023.51 8.23517323e+00 2.47055203e-01 
469 1025.30 8.40997028e+00 2.52299100e-01 
468 1027.09 8.32298279e+00 2.49689490e-01 
467 1028.88 8.50234890e+00 2.55070478e-01 
466 1030.67 8.33742523e+00 2.50122756e-01 
465 1032.46 8.51823425e+00 2.55547017e-01 
464 1034.24 8.38228130e+00 2.51468450e-01 
463 1036.02 8.53916168e+00 2.56174862e-01 
462 1037.80 8.41272926e+00 2.52381891e-01 
461 1039.58 8.60703659e+00 2.58211106e-01 
460 1041.35 8.46041393e+00 2.53812432e-01 
459 1043.12 8.65842342e+00 2.59752691e-01 
458 1044.89 8.55482578e+00 2.56644785e-01 
457 1046.66 8.73875713e+00 2.62162715e-01 
456 1048.43 8.68104267e+00 2.60431290e-01 
455 1050.19 8.88207817e+00 2.66462356e-01 
454 1051.95 8.72858524e+00 2.61857569e-01 
453 1053.71 8.96297455e+00 2.68889248e-01 
452 1055.47 8.80479336e+00 2.64143795e-01 
451 1057.23 8.94068623e+00 2.68220574e-01 
450 1058.98 8.79752922e+00 2.63925880e-01 
449 1060.73 9.00631332e+00 2.70189404e-01 
448 1062.48 8.81668758e+00 2.64500618e-01 
447 1064.23 8.94876194e+00 2.68462867e-01 
446 1065.97 8.64226818e+00 2.59268045e-01 
445 1067.71 8.66453552e+00 2.59936064e-01 
444 1069.46 8.46397495e+00 2.53919244e-01 
443 1071.19 8.59334373e+00 2.57800311e-01 
442 1072.93 8.43874359e+00 2.53162295e-01 
441 1074.67 8.54301453e+00 2.56290436e-01 
440 1076.40 8.35475540e+00 2.50642657e-01 
439 1078.13 8.39475536e+00 2.51842648e-01 
438 1079.86 8.16876698e+00 2.45063007e-01 
437 1081.58 8.24847794e+00 2.47454345e-01 
436 1083.31 8.11060810e+00 2.43318245e-01 
435 1085.03 8.28621483e+00 2.48586446e-01 
434 1086.75 8.22865582e+00 2.46859670e-01 
433 1088.47 8.36343479e+00 2.50903040e-01 
432 1090.19 8.25300121e+00 2.47590035e-01 
431 1091.90 8.36012077e+00 2.50803620e-01 
430 1093.61 8.19977283e+00 2.45993182e-01 
429 1095.33 8.39379597e+00 2.51813889e-01 
428 1097.03 8.42246723e+00 2.52674013e-01 
427 1098.74 8.65442753e+00 2.59632826e-01 
426 1100.45 8.66086102e+00 2.59825826e-01 
425 1102.15 8.95482349e+00 2.68644691e-01 
424 1103.85 8.92877007e+00 2.67863095e-01 
423 1105.55 9.14864826e+00 2.74459451e-01 
422 1107.25 9.03357506e+00 2.71007240e-01 
421 1108.94 9.11165142e+00 2.73349553e-01 
420 1110.64 8.78796577e+00 2.63638973e-01 
419 1112.33 8.61348820e+00 2.58404642e-01 
418 1114.02 8.05123615e+00 2.41537079e-01 
417 1115.70 7.85145617e+00 2.35543683e-01 
416 1117.39 7.51595306e+00 2.25478590e-01 
415 1119.07 7.40147400e+00 2.22044215e-01 
414 1120.76 7.15552139e+00 2.14665636e-01 
413 1122.44 7.09466505e+00 2.12839946e-01 
412 1124.12 7.03871346e+00 2.11161405e-01 
411 1125.79 7.32401705e+00 2.19720513e-01 
410 1127.47 7.57814026e+00 2.27344215e-01 
409 1129.14 8.00648212e+00 2.40194470e-01 
408 1130.81 7.49526882e+00 2.24858060e-01 
407 1132.48 7.23072577e+00 2.16921777e-01 
406 1134.15 7.08902025e+00 2.12670609e-01 
405 1135.81 7.55838203e+00 2.26751462e-01 
404 1137.48 8.31130123e+00 2.49339044e-01 
403 1139.14 8.64018917e+00 2.59205669e-01 
402 1140.80 8.33289433e+00 2.49986827e-01 
401 1142.46 8.14138699e+00 2.44241610e-01 
400 1144.12 7.79700184e+00 2.33910054e-01 
399 1145.77 7.79497051e+00 2.33849108e-01 
398 1147.43 7.81102753e+00 2.34330833e-01 
397 1149.08 8.06424236e+00 2.41927266e-01 
396 1150.73 8.08289814e+00 2.42486939e-01 
395 1152.38 8.36764145e+00 2.51029253e-01 
394 1154.02 8.41446686e+00 2.52434015e-01 
393 1155.67 8.72710609e+00 2.61813194e-01 
392 1157.31 8.69032192e+00 2.60709643e-01 
391 1158.95 8.84592533e+00 2.65377760e-01 
390 1160.59 8.84619331e+00 2.65385807e-01 
389 1162.23 9.04320812e+00 2.71296233e-01 
388 1163.87 9.01292038e+00 2.70387620e-01 
387 1165.50 9.11245728e+00 2.73373723e-01 
386 1167.13 9.02606201e+00 2.70781875e-01 
385 1168.76 9.15539932e+00 2.74661988e-01 
384 1170.39 9.03416157e+00 2.71024853e-01 
383 1172.02 8.98591805e+00 2.69577533e-01 
382 1173.65 8.76996708e+00 2.63099015e-01 
381 1175.27 8.75486469e+00 2.62645930e-01 
380 1176.90 8.64462757e+00 2.59338826e-01 
379 1178.52 8.59423256e+00 2.57826984e-01 
378 1180.14 8.38504601e+00 2.51551390e-01 
377 1181.75 8.38009071e+00 2.51402736e-01 
376 1183.37 8.19396210e+00 2.45818868e-01 
375 1184.99 8.20836163e+00 2.46250853e-01 
374 1186.60 8.09563160e+00 2.42868945e-01 
373 1188.21 8.08578396e+00 2.42573515e-01 
372 1189.82 8.02628994e+00 2.40788698e-01 
371 1191.43 8.22604084e+00 2.46781230e-01 
370 1193.04 8.10669708e+00 2.43200913e-01 
369 1194.64 8.07990646e+00 2.42397189e-01 
368 1196.24 7.87916422e+00 2.36374930e-01 
367 1197.85 7.90136242e+00 2.37040877e-01 
366 1199.45 7.78610897e+00 2.33583272e-01 
365 1201.05 7.86840773e+00 2.36052230e-01 
364 1202.64 7.83211470e+00 2.34963447e-01 
363 1204.24 7.87981796e+00 2.36394539e-01 
362 1205.83 7.81892776e+00 2.34567836e-01 
361 1207.43 7.82349634e+00 2.34704897e-01 
360 1209.02 7.75750113e+00 2.32725039e-01 
359 1210.61 7.90341234e+00 2.37102374e-01 
358 1212.19 7.90214586e+00 2.37064376e-01 
357 1213.78 8.05018044e+00 2.41505414e-01 
356 1215.37 7.96113539e+00 2.38834068e-01 
355 1216.95 8.00852108e+00 2.40255639e-01 
354 1218.53 7.97437191e+00 2.39231154e-01 
353 1220.11 8.04724312e+00 2.41417289e-01 
352 1221.69 7.99591160e+00 2.39877343e-01 
351 1223.27 8.04092121e+00 2.41227642e-01 
350 1224.84 8.03496933e+00 2.41049081e-01 
349 1226.42 8.10318565e+00 2.43095577e-01 
348 1227.99 8.09527397e+00 2.42858216e-01 
347 1229.56 8.23263741e+00 2.46979117e-01 
346 1231.13 8.16184044e+00 2.44855210e-01 
345 1232.70 8.23151779e+00 2.46945530e-01 
344 1234.27 8.18802547e+00 2.45640770e-01 
343 1235.84 8.19035530e+00 2.45710656e-01 
342 1237.40 8.10305595e+00 2.43091673e-01 
341 1238.96 8.08779716e+00 2.42633909e-01 
340 1240.52 7.94140244e+00 2.38242075e-01 
339 1242.08 8.07344532e+00 2.42203355e-01 
338 1243.64 8.04881477e+00 2.41464436e-01 
337 1245.20 8.10500908e+00 2.43150279e-01 
336 1246.75 8.07983685e+00 2.42395103e-01 
335 1248.31 8.12675858e+00 2.43802756e-01 
334 1249.86 8.04836750e+00 2.41451025e-01 
333 1251.41 8.08651829e+00 2.42595553e-01 
332 1252.96 8.03418159e+00 2.41025448e-01 
331 1254.51 8.06917953e+00 2.42075384e-01 
330 1256.06 7.98554611e+00 2.39566386e-01 
329 1257.61 7.94229460e+00 2.38268837e-01 
328 1259.15 7.81425190e+00 2.34427556e-01 
327 1260.69 7.75781775e+00 2.32734531e-01 
326 1262.23 7.64036846e+00 2.29211047e-01 
325 1263.77 7.61347055e+00 2.28404120e-01 
324 1265.31 7.45675421e+00 2.23702624e-01 
323 1266.85 7.48665476e+00 2.24599645e-01 
322 1268.39 7.53895187e+00 2.26168558e-01 
321 1269.92 7.66587543e+00 2.29976267e-01 
320 1271.46 7.78582096e+00 2.33574629e-01 
319 1272.99 7.84052753e+00 2.35215828e-01 
318 1274.52 7.81213760e+00 2.34364122e-01 
317 1276.05 7.85959911e+00 2.35787973e-01 
316 1277.58 7.73707771e+00 2.32112333e-01 
315 1279.10 7.58176947e+00 2.27453083e-01 
314 1280.63 7.52803516e+00 2.25841060e-01 
313 1282.15 7.54669952e+00 2.26400986e-01 
312 1283.68 7.63002491e+00 2.28900746e-01 
311 1285.20 7.80566597e+00 2.34169975e-01 
310 1286.72 7.78063440e+00 2.33419031e-01 
309 1288.24 7.78101492e+00 2.33430445e-01 
308 1289.75 7.69101954e+00 2.30730593e-01 
307 1291.27 7.71430779e+00 2.31429234e-01 
306 1292.78 7.73487377e+00 2.32046217e-01 
305 1294.30 7.71858311e+00 2.31557488e-01 
304 1295.81 7.61833525e+00 2.28550062e-01 
303 1297.32 7.59267521e+00 2.27780253e-01 
302 1298.83 7.54700899e+00 2.26410270e-01 
301 1300.34 7.51368141e+00 2.25410447e-01 
300 1301.85 7.44735193e+00 2.23420560e-01 
299 1303.35 7.38482952e+00 2.21544892e-01 
298 1304.86 7.26137161e+00 2.17841148e-01 
297 1306.36 7.22568846e+00 2.16770649e-01 
296 1307.86 7.16284084e+00 2.14885220e-01 
295 1309.36 7.10268879e+00 2.13080660e-01 
294 1310.86 7.01459312e+00 2.10437790e-01 
293 1312.36 6.95920849e+00 2.08776250e-01 
292 1313.86 6.90521336e+00 2.07156405e-01 
291 1315.36 6.89601040e+00 2.06880316e-01 
290 1316.85 6.84974051e+00 2.05492213e-01 
289 1318.34 6.80607319e+00 2.04182193e-01 
288 1319.84 6.71713781e+00 2.01514140e-01 
287 1321.33 6.69908047e+00 2.00972408e-01 
286 1322.82 6.65077448e+00 1.99523240e-01 
285 1324.30 6.61529732e+00 1.98458925e-01 
284 1325.79 6.45428705e+00 1.93628609e-01 
283 1327.28 6.29525805e+00 1.88857734e-01 
282 1328.76 6.05640030e+00 1.81692004e-01 
281 1330.25 5.97553062e+00 1.79265916e-01 
280 1331.73 5.92386246e+00 1.77715868e-01 
279 1333.21 5.92443132e+00 1.77732944e-01 
278 1334.69 5.91434193e+00 1.77430257e-01 
277 1336.17 5.86580563e+00 1.75974175e-01 
276 1337.65 5.75592470e+00 1.72677740e-01 
275 1339.12 5.69943380e+00 1.70983016e-01 
274 1340.60 5.55251694e+00 1.66575506e-01 
273 1342.07 5.35850191e+00 1.60755053e-01 
272 1343.55 5.08281708e+00 1.52484506e-01 
271 1345.02 4.52619028e+00 1.35785714e-01 
270 1346.49 4.15618134e+00 1.24685436e-01 
269 1347.96 3.73654675e+00 1.12096399e-01 
268 1349.43 3.32478046e+00 9.97434109e-02 
267 1350.89 2.88544893e+00 8.65634680e-02 
266 1352.36 2.32964253e+00 6.98892772e-02 
265 1353.82 2.02704406e+00 6.08113222e-02 
264 1355.29 1.24766409e+00 3.74299213e-02 
263 1356.75 1.48454547e+00 4.45363633e-02 
262 1358.21 1.16862535e+00 3.50587592e-02 
261 1359.67 3.48025322e-01 1.04407594e-02 
260 1361.13 3.28089386e-01 9.84268170e-03 
259 1362.59 3.69092524e-01 1.10727753e-02 
258 1364.04 9.39833760e-01 2.81950124e-02 
257 1365.50 8.29098582e-01 2.48729568e-02 
256 1366.95 3.09783876e-01 9.29351617e-03 
255 1368.41 2.68264502e-01 8.04793462e-03 
254 1369.86 7.29029536e-01 2.18708869e-02 
253 1371.31 1.01456344e+00 3.04369032e-02 
252 1372.76 5.42965591e-01 1.62889678e-02 
251 1374.21 1.47996974e+00 4.43990938e-02 
250 1375.65 1.57011724e+00 4.71035168e-02 
249 1377.10 1.46043086e+00 4.38129269e-02 
248 1378.55 8.38224411e-01 2.51467321e-02 
247 1379.99 7.66827703e-01 2.30048317e-02 
246 1381.43 2.23270565e-01 6.69811713e-03 
245 1382.87 5.29833734e-01 1.58950128e-02 
244 1384.32 6.84802830e-01 2.05440857e-02 
243 1385.75 9.88316536e-01 2.96494961e-02 
242 1387.19 1.34358394e+00 4.03075181e-02 
241 1388.63 1.41753411e+00 4.25260216e-02 
240 1390.07 1.57108307e+00 4.71324921e-02 
239 1391.50 1.46643543e+00 4.39930633e-02 
238 1392.94 5.66467941e-01 1.69940386e-02 
237 1394.37 1.14819098e+00 3.44457291e-02 
236 1395.80 1.31309378e+00 3.93928140e-02 
235 1397.23 1.21769524e+00 3.65308560e-02 
234 1398.66 8.70727181e-01 2.61218157e-02 
233 1400.09 1.43372154e+00 4.30116467e-02 
232 1401.52 1.26051641e+00 3.78154926e-02 
231 1402.94 1.45689845e+00 4.37069535e-02 
230 1404.37 1.60152245e+00 4.80456725e-02 
229 1405.79 1.51495218e+00 4.54485640e-02 
228 1407.22 1.60497606e+00 4.81492803e-02 
227 1408.64 1.73978257e+00 5.21934777e-02 
226 1410.06 1.88776350e+00 5.66329062e-02 
225 1411.48 1.90308523e+00 5.70925586e-02 
224 1412.90 2.07674932e+00 6.23024814e-02 
223 1414.32 2.25363207e+00 6.76089600e-02 
222 1415.73 2.16730857e+00 6.50192574e-02 
221 1417.15 2.20090580e+00 6.60271719e-02 
220 1418.56 2.34259319e+00 7.02777952e-02 
219 1419.98 2.28858209e+00 6.86574653e-02 
218 1421.39 2.40997362e+00 7.22992122e-02 
217 1422.80 2.64315605e+00 7.92946815e-02 
216 1424.21 2.70190477e+00 8.10571462e-02 
215 1425.62 2.67328691e+00 8.01986083e-02 
214 1427.03 2.80426407e+00 8.41279253e-02 
213 1428.44 2.67569542e+00 8.02708641e-02 
212 1429.84 2.56482410e+00 7.69447237e-02 
211 1431.25 2.59496117e+00 7.78488368e-02 
210 1432.65 2.59673333e+00 7.79019967e-02 
209 1434.06 2.62263680e+00 7.86791071e-02 
208 1435.46 2.72853470e+00 8.18560421e-02 
207 1436.86 2.78455710e+00 8.35367143e-02 
206 1438.26 2.83287382e+00 8.49862173e-02 
205 1439.66 2.90541220e+00 8.71623680e-02 
204 1441.05 3.05858660e+00 9.17575955e-02 
203 1442.45 2.97430539e+00 8.92291591e-02 
202 1443.85 2.97369623e+00 8.92108902e-02 
201 1445.24 3.07496142e+00 9.22488421e-02 
200 1446.64 3.11038446e+00 9.33115333e-02 
199 1448.03 3.01701903e+00 9.05105695e-02 
198 1449.42 3.09960651e+00 9.29881930e-02 
197 1450.81 3.15220523e+00 9.45661590e-02 
196 1452.20 3.23906946e+00 9.71720815e-02 
195 1453.59 3.49070621e+00 1.04721189e-01 
194 1454.97 3.72081423e+00 1.11624427e-01 
193 1456.36 3.75278449e+00 1.12583533e-01 
192 1457.75 3.80160093e+00 1.14048027e-01 
191 1459.13 3.77124238e+00 1.13137275e-01 
190 1460.51 3.72066402e+00 1.11619920e-01 
189 1461.90 3.56146979e+00 1.06844097e-01 
188 1463.28 3.47062922e+00 1.04118876e-01 
187 1464.66 3.35695291e+00 1.00708589e-01 
186 1466.04 3.36155605e+00 1.00846678e-01 
185 1467.41 3.20987844e+00 9.62963551e-02 
184 1468.79 3.14533806e+00 9.43601429e-02 
183 1470.17 3.10122824e+00 9.30368453e-02 
182 1471.54 3.16851449e+00 9.50554311e-02 
181 1472.92 3.28935647e+00 9.86806974e-02 
180 1474.29 3.43201351e+00 1.02960408e-01 
179 1475.66 3.44925928e+00 1.03477776e-01 
178 1477.03 3.37428284e+00 1.01228483e-01 
177 1478.40 3.31295061e+00 9.93885174e-02 
176 1479.77 3.38355303e+00 1.01506591e-01 
175 1481.14 3.41593337e+00 1.02477998e-01 
174 1482.51 3.52436471e+00 1.05730943e-01 
173 1483.87 3.51697850e+00 1.05509356e-01 
172 1485.24 3.51638389e+00 1.05491519e-01 
171 1486.60 3.47192812e+00 1.04157843e-01 
170 1487.96 3.55140662e+00 1.06542200e-01 
169 1489.32 3.57556796e+00 1.07267037e-01 
168 1490.68 3.73637033e+00 1.12091109e-01 
167 1492.04 3.74641705e+00 1.12392515e-01 
166 1493.40 3.79818487e+00 1.13945544e-01 
165 1494.76 3.78893661e+00 1.13668099e-01 
164 1496.12 3.84043980e+00 1.15213193e-01 
163 1497.47 3.80146861e+00 1.14044055e-01 
162 1498.83 3.87513590e+00 1.16254076e-01 
161 1500.18 3.73425388e+00 1.12027615e-01 
160 1501.53 3.66709876e+00 1.10012963e-01 
159 1502.89 3.55685139e+00 1.06705539e-01 
158 1504.24 3.57796764e+00 1.07339032e-01 
157 1505.59 3.62137318e+00 1.08641192e-01 
156 1506.93 3.75727057e+00 1.12718120e-01 
155 1508.28 3.79352784e+00 1.13805838e-01 
154 1509.63 3.83373237e+00 1.15011968e-01 
153 1510.97 3.80500412e+00 1.14150122e-01 
152 1512.32 3.83593392e+00 1.15078017e-01 
151 1513.66 3.76409292e+00 1.12922788e-01 
150 1515.00 3.81426144e+00 1.14427842e-01 
149 1516.34 3.75680494e+00 1.12704150e-01 
148 1517.69 3.77780414e+00 1.13334127e-01 
147 1519.02 3.70906019e+00 1.11271806e-01 
146 1520.36 3.71389461e+00 1.11416839e-01 
145 1521.70 3.65830326e+00 1.09749101e-01 
144 1523.04 3.71189451e+00 1.11356832e-01 
143 1524.37 3.66805792e+00 1.10041738e-01 
142 1525.71 3.71473765e+00 1.11442126e-01 
141 1527.04 3.65559268e+00 1.09667778e-01 
140 1528.37 3.69338703e+00 1.10801607e-01 
139 1529.70 3.62229776e+00 1.08668931e-01 
138 1531.03 3.65911841e+00 1.09773554e-01 
137 1532.36 3.60833168e+00 1.08249947e-01 
136 1533.69 3.62900162e+00 1.08870052e-01 
135 1535.02 3.56019831e+00 1.06805950e-01 
134 1536.34 3.58821416e+00 1.07646428e-01 
133 1537.67 3.53496885e+00 1.06049068e-01 
132 1538.99 3.58128929e+00 1.07438676e-01 
131 1540.31 3.53370619e+00 1.06011182e-01 
130 1541.64 3.56423306e+00 1.06926993e-01 
129 1542.96 3.52547145e+00 1.05764143e-01 
128 1544.28 3.55401134e+00 1.06620342e-01 
127 1545.60 3.47695589e+00 1.04308680e-01 
126 1546.91 3.50971484e+00 1.05291449e-01 
125 1548.23 3.42871428e+00 1.02861427e-01 
124 1549.55 3.47186732e+00 1.04156017e-01 
123 1550.86 3.39033508e+00 1.01710051e-01 
122 1552.18 3.40940428e+00 1.02282129e-01 
121 1553.49 3.34360266e+00 1.00308083e-01 
120 1554.80 3.37442541e+00 1.01232760e-01 
119 1556.11 3.31559515e+00 9.94678512e-02 
118 1557.42 3.35998607e+00 1.00799583e-01 
117 1558.73 3.27948713e+00 9.83846113e-02 
116 1560.04 3.30187488e+00 9.90562439e-02 
115 1561.34 3.22628832e+00 9.67886522e-02 
114 1562.65 3.26734591e+00 9.80203748e-02 
113 1563.95 3.19548583e+00 9.58645716e-02 
112 1565.26 3.24720788e+00 9.74162370e-02 
111 1566.56 3.14933062e+00 9.44799185e-02 
110 1567.86 3.17312717e+00 9.51938182e-02 
109 1569.16 3.07034135e+00 9.21102390e-02 
108 1570.46 3.06080317e+00 9.18240920e-02 
107 1571.76 2.98179770e+00 8.94539282e-02 
106 1573.05 2.95516682e+00 8.86550024e-02 
105 1574.35 2.85605550e+00 8.56816620e-02 
104 1575.64 2.85957718e+00 8.57873186e-02 
103 1576.94 2.81582260e+00 8.44746754e-02 
102 1578.23 2.88020086e+00 8.64060223e-02 
101 1579.52 2.85487890e+00 8.56463686e-02 
100 1580.81 2.92304754e+00 8.76914263e-02 
99 1582.10 2.85683298e+00 8.57049897e-02 
98 1583.39 2.91747117e+00 8.75241384e-02 
97 1584.68 2.85176277e+00 8.55528861e-02 
96 1585.97 2.84592867e+00 8.53778571e-02 
95 1587.25 2.74454069e+00 8.23362172e-02 
94 1588.54 2.74971986e+00 8.24915990e-02 
93 1589.82 2.68691301e+00 8.06073919e-02 
92 1591.10 2.75788903e+00 8.27366710e-02 
91 1592.38 2.72455907e+00 8.17367733e-02 
90 1593.66 2.77720976e+00 8.33162963e-02 
89 1594.94 2.70728397e+00 8.12185183e-02 
88 1596.22 2.72913456e+00 8.18740353e-02 
87 1597.50 2.65459728e+00 7.96379149e-02 
86 1598.77 2.67794514e+00 8.03383514e-02 
85 1600.05 2.60891151e+00 7.82673433e-02 
84 1601.32 2.63998246e+00 7.91994706e-02 
83 1602.59 2.57062531e+00 7.71187618e-02 
82 1603.86 2.62010431e+00 7.86031261e-02 
81 1605.13 2.53052163e+00 7.59156495e-02 
80 1606.40 2.57474923e+00 7.72424787e-02 
79 1607.67 2.50189066e+00 7.50567168e-02 
78 1608.94 2.54317451e+00 7.62952343e-02 
77 1610.20 2.48899579e+00 7.46698752e-02 
76 1611.47 2.54792118e+00 7.64376372e-02 
75 1612.73 2.49756646e+00 7.49269947e-02 
74 1614.00 2.54572105e+00 7.63716325e-02 
73 1615.26 2.48059916e+00 7.44179785e-02 
72 1616.52 2.49996018e+00 7.49988034e-02 
71 1617.78 2.39398241e+00 7.18194693e-02 
70 1619.03 2.42746949e+00 7.28240833e-02 
69 1620.29 2.37391853e+00 7.12175593e-02 
68 1621.55 2.42619896e+00 7.27859661e-02 
67 1622.80 2.36500120e+00 7.09500387e-02 
66 1624.06 2.43371344e+00 7.30114058e-02 
65 1625.31 2.34314108e+00 7.02942312e-02 
64 1626.56 2.39145279e+00 7.17435852e-02 
63 1627.81 2.30139136e+00 6.90417439e-02 
62 1629.06 2.31898499e+00 6.95695505e-02 
61 1630.31 2.24044538e+00 6.72133639e-02 
60 1631.56 2.25141954e+00 6.75425828e-02 
59 1632.80 2.18429923e+00 6.55289739e-02 
58 1634.05 2.20711303e+00 6.62133917e-02 
57 1635.29 2.11420989e+00 6.34262934e-02 
56 1636.53 2.13461828e+00 6.40385449e-02 
55 1637.77 2.03255057e+00 6.09765165e-02 
54 1639.01 2.06103158e+00 6.18309490e-02 
53 1640.25 1.98981655e+00 5.96944951e-02 
52 1641.49 2.01254153e+00 6.03762455e-02 
