% C0 (TOA Count Rate, /ms) for 4STAR VIS spectrometer (1044 channels) derived from (SEE Original files for sources) and recorded on 2017-08-01 13:01:33.
% Langley at MLO and airborne Data outside 2.0x the STD of 501 nm Langley residuals were screened out. 
% Including high Altitude rate spectra, matched to splined stratospheric AOD measured at MLO.
% Averages of c0 from multiple days including: , MLO -av-g-, WFF--20-16. See the list of files below
% 20170605_VIS_C0_refined_Langley_MLO_May2017_averages.dat
% 20160918_VIS_C0_refined_high_alt_low_m_fromBonanza.dat
Pix Wavelength C0 C0err
0 173.18 -5.00000000e-01 7.07106781e-01 
1 173.98 -1.00000000e+00 0.00000000e+00 
2 174.77 -1.00000000e+00 0.00000000e+00 
3 175.56 -1.00000000e+00 0.00000000e+00 
4 176.36 -1.00000000e+00 0.00000000e+00 
5 177.15 -1.00000000e+00 0.00000000e+00 
6 177.94 -1.00000000e+00 0.00000000e+00 
7 178.74 -1.00000000e+00 0.00000000e+00 
8 179.53 -1.00000000e+00 0.00000000e+00 
9 180.33 -1.00000000e+00 0.00000000e+00 
10 181.12 -1.00000000e+00 0.00000000e+00 
11 181.92 -1.00000000e+00 0.00000000e+00 
12 182.71 -1.00000000e+00 0.00000000e+00 
13 183.51 -1.00000000e+00 0.00000000e+00 
14 184.30 -1.00000000e+00 0.00000000e+00 
15 185.10 -1.00000000e+00 0.00000000e+00 
16 185.89 -1.00000000e+00 0.00000000e+00 
17 186.69 -1.00000000e+00 0.00000000e+00 
18 187.49 -1.00000000e+00 0.00000000e+00 
19 188.28 -1.00000000e+00 0.00000000e+00 
20 189.08 -1.00000000e+00 0.00000000e+00 
21 189.88 -1.00000000e+00 0.00000000e+00 
22 190.67 -1.00000000e+00 0.00000000e+00 
23 191.47 -1.00000000e+00 0.00000000e+00 
24 192.27 -1.00000000e+00 0.00000000e+00 
25 193.07 -1.00000000e+00 0.00000000e+00 
26 193.86 -1.00000000e+00 0.00000000e+00 
27 194.66 -1.00000000e+00 0.00000000e+00 
28 195.46 -1.00000000e+00 0.00000000e+00 
29 196.26 -1.00000000e+00 0.00000000e+00 
30 197.05 -1.00000000e+00 0.00000000e+00 
31 197.85 -1.00000000e+00 0.00000000e+00 
32 198.65 -1.00000000e+00 0.00000000e+00 
33 199.45 -1.00000000e+00 0.00000000e+00 
34 200.25 -1.00000000e+00 0.00000000e+00 
35 201.05 -1.00000000e+00 0.00000000e+00 
36 201.85 -1.00000000e+00 0.00000000e+00 
37 202.65 -1.00000000e+00 0.00000000e+00 
38 203.44 -1.00000000e+00 0.00000000e+00 
39 204.24 -1.00000000e+00 0.00000000e+00 
40 205.04 -1.00000000e+00 0.00000000e+00 
41 205.84 -1.00000000e+00 0.00000000e+00 
42 206.64 -1.00000000e+00 0.00000000e+00 
43 207.44 -1.00000000e+00 0.00000000e+00 
44 208.24 -8.94854603e-01 1.48698046e-01 
45 209.04 -8.91539291e-01 1.53386606e-01 
46 209.84 -8.41353699e-01 2.24359750e-01 
47 210.64 -5.09486124e-01 6.93691376e-01 
48 211.44 -5.61024676e-01 6.20804857e-01 
49 212.24 -6.66196942e-01 4.72068812e-01 
50 213.04 -8.19955175e-02 1.29825439e+00 
51 213.85 -5.12091041e-01 6.90007468e-01 
52 214.65 -4.93099372e-01 7.16865743e-01 
53 215.45 -5.10394121e-01 6.92407274e-01 
54 216.25 -5.06045942e-01 6.98556528e-01 
55 217.05 -5.06303564e-01 6.98192196e-01 
56 217.85 -5.01161586e-01 7.05464051e-01 
57 218.65 5.54530195e+03 7.84365544e+03 
58 219.46 1.23347965e-01 1.58865393e+00 
59 220.26 8.03888550e-02 1.52790057e+00 
60 221.06 -1.91828070e-02 1.38708498e+00 
61 221.86 2.52119091e+34 3.56550238e+34 
62 222.66 1.54236899e+33 2.18123915e+33 
63 223.47 9.50932540e+31 1.34482169e+32 
64 224.27 5.81375025e+30 8.22188445e+30 
65 225.07 3.54422181e+29 5.01228654e+29 
66 225.87 2.20644829e+28 3.12038910e+28 
67 226.68 1.42504640e+27 2.01531994e+27 
68 227.48 9.39440010e+25 1.32856880e+26 
69 228.28 7.71160200e+24 1.09058521e+25 
70 229.08 9.94528175e+23 1.40647523e+24 
71 229.89 2.89873686e+23 4.09943297e+23 
72 230.69 2.73583662e+23 3.86905725e+23 
73 231.49 9.11680390e+23 1.28931077e+24 
74 232.30 8.21187135e+24 1.16133398e+25 
75 233.10 1.38120863e+26 1.95332398e+26 
76 233.90 2.92173434e+27 4.13195633e+27 
77 234.71 7.16341155e+28 1.01305938e+29 
78 235.51 1.82265847e+30 2.57762833e+30 
79 236.32 4.72059517e+31 6.67592970e+31 
80 237.12 1.26016254e+33 1.78213895e+33 
81 237.92 3.48558112e+34 4.92935609e+34 
82 238.73 -9.24622915e-02 1.28345214e+00 
83 239.53 1.44640440e-01 1.61876603e+00 
84 240.34 -2.91731974e-01 1.00164225e+00 
85 241.14 -5.09985681e-01 6.92984896e-01 
86 241.94 -5.36375627e-01 6.55663876e-01 
87 242.75 -5.08841147e-01 6.94603511e-01 
88 243.55 -5.39239441e-01 6.51613831e-01 
89 244.36 -5.33259148e-01 6.60071242e-01 
90 245.16 -4.82409313e-01 7.31983769e-01 
91 245.97 -5.19127017e-01 6.80057095e-01 
92 246.77 -6.75643310e-01 4.58709630e-01 
93 247.58 -7.06565132e-01 4.14979571e-01 
94 248.38 -5.16576434e-01 6.83664164e-01 
95 249.19 -6.70279141e-01 4.66295711e-01 
96 249.99 -6.57881985e-01 4.83827937e-01 
97 250.80 -6.62305821e-01 4.77571687e-01 
98 251.60 4.49926572e+11 6.36292261e+11 
99 252.41 -8.84763278e-01 1.62969335e-01 
100 253.21 -8.43172372e-01 2.21787759e-01 
101 254.02 -8.11942895e-01 2.65952908e-01 
102 254.82 -8.83689475e-01 1.64487921e-01 
103 255.63 -8.45322599e-01 2.18746878e-01 
104 256.44 -8.48023286e-01 2.14927531e-01 
105 257.24 -8.13108464e-01 2.64304545e-01 
106 258.05 3.06020554e+06 4.32778560e+06 
107 258.85 -2.93290020e-02 1.37273609e+00 
108 259.66 -7.41837586e-01 3.65096786e-01 
109 260.46 -6.56080415e-01 4.86375741e-01 
110 261.27 -6.38361683e-01 5.11433813e-01 
111 262.08 -6.52414034e-01 4.91560787e-01 
112 262.88 -5.93882862e-01 5.74336365e-01 
113 263.69 -5.12799759e-01 6.89005188e-01 
114 264.49 -4.99628519e-01 7.07632135e-01 
115 265.30 -5.08440181e-01 6.95170563e-01 
116 266.11 -4.82429763e-01 7.31954849e-01 
117 266.91 -5.08789534e-01 6.94676503e-01 
118 267.72 -5.16654457e-01 6.83553823e-01 
119 268.53 -2.73525794e-01 1.02738967e+00 
120 269.33 -1.62677220e-02 1.39120753e+00 
121 270.14 -6.79307635e-02 1.31814496e+00 
122 270.95 5.49619975e+34 7.77280023e+34 
123 271.75 1.72222095e+33 2.43558822e+33 
124 272.56 4.98148039e+31 7.04487713e+31 
125 273.37 1.18210603e+30 1.67175037e+30 
126 274.17 2.65481126e+28 3.75447008e+28 
127 274.98 7.86815245e+26 1.11272479e+27 
128 275.79 2.68695666e+25 3.79993055e+25 
129 276.59 1.05184437e+24 1.48753257e+24 
130 277.40 4.24563434e+22 6.00423366e+22 
131 278.21 1.66352823e+21 2.35258418e+21 
132 279.01 7.07960410e+19 1.00120721e+20 
133 279.82 3.27160730e+18 4.62675141e+18 
134 280.63 1.52898757e+17 2.16231496e+17 
135 281.43 7.41033740e+15 1.04797997e+16 
136 282.24 4.83230059e+14 6.83390503e+14 
137 283.05 3.96709436e+13 5.61031865e+13 
138 283.86 3.56003794e+12 5.03465394e+12 
139 284.66 3.35950971e+11 4.75106419e+11 
140 285.47 3.51458673e+10 4.97037621e+10 
141 286.28 5.02755020e+09 7.11002967e+09 
142 287.09 7.64321603e+08 1.08091397e+09 
143 287.89 1.15546451e+08 1.63407350e+08 
144 288.70 2.10709366e+07 2.97987913e+07 
145 289.51 4.47685799e+06 6.33121210e+06 
146 290.32 1.08489052e+06 1.53423395e+06 
147 291.12 2.90716275e+05 4.11082680e+05 
148 291.93 8.02768564e+04 1.13439090e+05 
149 292.74 2.60097734e+04 3.67152271e+04 
150 293.55 9.00266540e+03 1.26938962e+04 
151 294.35 3.55398639e+03 5.00235225e+03 
152 295.16 1.47789662e+03 2.07487794e+03 
153 295.97 6.55924387e+02 9.17358906e+02 
154 296.78 3.15108881e+02 4.38413205e+02 
155 297.58 1.61918599e+02 2.23686020e+02 
156 298.39 8.83791243e+01 1.20931568e+02 
157 299.20 5.19190777e+01 7.01700827e+01 
158 300.01 3.29104944e+01 4.37868362e+01 
159 300.81 2.15450620e+01 2.81619511e+01 
160 301.62 1.46219620e+01 1.86217503e+01 
161 302.43 1.06548007e+01 1.32449616e+01 
162 303.24 7.93822650e+00 9.56656077e+00 
163 304.04 6.13344446e+00 7.14557048e+00 
164 304.85 4.87605577e+00 5.46222746e+00 
165 305.66 3.87469288e+00 4.14002497e+00 
166 306.47 3.29768899e+00 3.38724775e+00 
167 307.28 2.78020493e+00 2.70521582e+00 
168 308.08 2.43184144e+00 2.26340504e+00 
169 308.89 2.18965430e+00 1.95006562e+00 
170 309.70 1.94613299e+00 1.63802062e+00 
171 310.51 1.78222317e+00 1.42695616e+00 
172 311.32 1.61559923e+00 1.21345621e+00 
173 312.12 1.49750063e+00 1.06369984e+00 
174 312.93 1.40112161e+00 9.38909057e-01 
175 313.74 1.35723826e+00 8.70180234e-01 
176 314.55 1.26349446e+00 7.58881877e-01 
177 315.36 1.22283519e+00 6.98633062e-01 
178 316.16 1.18095329e+00 6.37419791e-01 
179 316.97 1.15165623e+00 5.85824730e-01 
180 317.78 1.13672385e+00 5.61370270e-01 
181 318.59 1.10989337e+00 5.14559170e-01 
182 319.40 1.09828111e+00 4.84385522e-01 
183 320.20 1.10311484e+00 4.71733657e-01 
184 321.01 1.08783752e+00 4.33080188e-01 
185 321.82 1.10107215e+00 4.27608164e-01 
186 322.63 1.10389005e+00 4.10405624e-01 
187 323.43 1.10652183e+00 3.86051151e-01 
188 324.24 1.11319441e+00 3.71500093e-01 
189 325.05 1.12691003e+00 3.60400979e-01 
190 325.86 1.13718124e+00 3.42500173e-01 
191 326.67 1.15651669e+00 3.40660986e-01 
192 327.48 1.18494488e+00 3.34301530e-01 
193 328.28 1.20439689e+00 3.31477317e-01 
194 329.09 1.23625770e+00 3.24511143e-01 
195 329.90 1.27758657e+00 3.28961553e-01 
196 330.71 1.33358585e+00 3.27560421e-01 
197 331.52 1.42059484e+00 3.48271840e-01 
198 332.32 1.55557974e+00 3.53154399e-01 
199 333.13 1.83151962e+00 4.07999333e-01 
200 333.94 2.31322742e+00 4.75372623e-01 
201 334.75 3.11866081e+00 5.84715535e-01 
202 335.55 4.21881004e+00 6.90596736e-01 
203 336.36 5.78317301e+00 7.66724785e-01 
204 337.17 8.27821283e+00 8.04839877e-01 
205 337.98 1.17702352e+01 8.20270666e-01 
206 338.79 1.59586062e+01 6.76508291e-01 
207 339.60 2.07013202e+01 4.37060085e-01 
208 340.40 2.49743106e+01 1.54141924e-01 
209 341.21 2.85738047e+01 1.74672487e-01 
210 342.02 3.27984046e+01 5.98255965e-01 
211 342.83 3.66607825e+01 9.35296786e-01 
212 343.63 3.77161166e+01 1.15203548e+00 
213 344.44 3.91129674e+01 1.49239900e+00 
214 345.25 4.35237792e+01 2.01798079e+00 
215 346.06 4.77975582e+01 2.47645490e+00 
216 346.87 5.06009502e+01 2.87059013e+00 
217 347.67 5.25829379e+01 3.13981842e+00 
218 348.48 5.44814421e+01 3.54304974e+00 
219 349.29 5.77959537e+01 4.08108538e+00 
220 350.10 6.35368357e+01 4.77304226e+00 
221 350.90 6.75004928e+01 5.19268143e+00 
222 351.71 6.77540156e+01 5.40569232e+00 
223 352.52 6.90020142e+01 5.81514838e+00 
224 353.33 7.50916462e+01 6.67491979e+00 
225 354.14 8.28335819e+01 7.56127411e+00 
226 354.94 8.64021441e+01 7.99061988e+00 
227 355.75 8.49829444e+01 7.95556089e+00 
228 356.56 8.00273800e+01 7.59711170e+00 
229 357.37 7.51690820e+01 7.31614169e+00 
230 358.18 7.40927105e+01 7.61842121e+00 
231 358.98 8.30183646e+01 9.01433916e+00 
232 359.79 9.59590805e+01 1.04068604e+01 
233 360.60 9.79338180e+01 1.06975838e+01 
234 361.41 9.64196424e+01 1.09813282e+01 
235 362.21 1.01553525e+02 1.17762010e+01 
236 363.02 1.07649859e+02 1.26162427e+01 
237 363.83 1.11359527e+02 1.32850317e+01 
238 364.64 1.16794470e+02 1.41475492e+01 
239 365.44 1.27285202e+02 1.55524106e+01 
240 366.25 1.36717189e+02 1.65496101e+01 
241 367.06 1.38112795e+02 1.67672349e+01 
242 367.87 1.35974200e+02 1.67241530e+01 
243 368.67 1.37864914e+02 1.71422469e+01 
244 369.48 1.43942856e+02 1.76431861e+01 
245 370.29 1.45514119e+02 1.78013899e+01 
246 371.10 1.43982204e+02 1.75290915e+01 
247 371.90 1.40473864e+02 1.69316160e+01 
248 372.71 1.32816354e+02 1.60358949e+01 
249 373.52 1.25512289e+02 1.51846875e+01 
250 374.33 1.24794399e+02 1.54377334e+01 
251 375.13 1.33576778e+02 1.63615706e+01 
252 375.94 1.45707388e+02 1.77138868e+01 
253 376.75 1.58748933e+02 1.93963244e+01 
254 377.56 1.73973412e+02 2.07823442e+01 
255 378.36 1.78566905e+02 2.08308128e+01 
256 379.17 1.69659185e+02 2.02159714e+01 
257 379.98 1.65739345e+02 1.98188999e+01 
258 380.78 1.65751022e+02 1.89459412e+01 
259 381.59 1.51742685e+02 1.71024028e+01 
260 382.40 1.29306836e+02 1.50359292e+01 
261 383.20 1.18594316e+02 1.44400051e+01 
262 384.01 1.28415146e+02 1.55759643e+01 
263 384.82 1.45526642e+02 1.70225252e+01 
264 385.63 1.52905721e+02 1.79917183e+01 
265 386.43 1.54276610e+02 1.84033110e+01 
266 387.24 1.55450131e+02 1.85838601e+01 
267 388.05 1.57883322e+02 1.95272091e+01 
268 388.85 1.67338002e+02 2.11386312e+01 
269 389.66 1.83005541e+02 2.31740862e+01 
270 390.47 1.95692378e+02 2.49132493e+01 
271 391.27 1.97071216e+02 2.47624884e+01 
272 392.08 1.76395254e+02 2.20253432e+01 
273 392.89 1.43115994e+02 1.95802358e+01 
274 393.69 1.34532704e+02 2.01577822e+01 
275 394.50 1.60328460e+02 2.29954908e+01 
276 395.31 1.80166739e+02 2.45339254e+01 
277 396.11 1.68466810e+02 2.41498681e+01 
278 396.92 1.58787958e+02 2.55820082e+01 
279 397.73 1.86731177e+02 2.98732208e+01 
280 398.53 2.30776963e+02 3.57724861e+01 
281 399.34 2.59037186e+02 4.06261632e+01 
282 400.15 2.72608600e+02 4.36485907e+01 
283 400.95 2.81960370e+02 4.57151358e+01 
284 401.76 2.89398519e+02 4.70881872e+01 
285 402.57 2.91507251e+02 4.78777229e+01 
286 403.37 2.89592420e+02 4.80626928e+01 
287 404.18 2.87973149e+02 4.80832038e+01 
288 404.99 2.86473836e+02 4.80549995e+01 
289 405.79 2.84848198e+02 4.79712328e+01 
290 406.60 2.85544626e+02 4.85210741e+01 
291 407.40 2.92402985e+02 4.99379923e+01 
292 408.21 3.03314227e+02 5.14110555e+01 
293 409.02 3.07677894e+02 5.17827215e+01 
294 409.82 3.03888356e+02 5.22683143e+01 
295 410.63 3.06939896e+02 5.34253390e+01 
296 411.43 3.19916578e+02 5.48416216e+01 
297 412.24 3.28795479e+02 5.63083951e+01 
298 413.05 3.29755666e+02 5.70444360e+01 
299 413.85 3.29424947e+02 5.71996763e+01 
300 414.66 3.29805626e+02 5.76025200e+01 
301 415.46 3.30924779e+02 5.81936775e+01 
302 416.27 3.31071775e+02 5.81324258e+01 
303 417.08 3.26878029e+02 5.79179002e+01 
304 417.88 3.21094154e+02 5.76373273e+01 
305 418.69 3.18544276e+02 5.74396005e+01 
306 419.49 3.19374710e+02 5.81539869e+01 
307 420.30 3.23516681e+02 5.92411494e+01 
308 421.11 3.27407091e+02 5.94708814e+01 
309 421.91 3.25095251e+02 5.91668566e+01 
310 422.72 3.19715825e+02 5.88322925e+01 
311 423.52 3.19381765e+02 5.84366811e+01 
312 424.33 3.22986699e+02 5.84370050e+01 
313 425.13 3.25278572e+02 5.85030410e+01 
314 425.94 3.25404221e+02 5.78044909e+01 
315 426.74 3.24869138e+02 5.69705157e+01 
316 427.55 3.24203735e+02 5.58995452e+01 
317 428.36 3.20246501e+02 5.34370289e+01 
318 429.16 3.07775910e+02 5.00622458e+01 
319 429.96 2.94173752e+02 4.81349860e+01 
320 430.77 3.01110186e+02 4.88092533e+01 
321 431.58 3.32402476e+02 5.04047648e+01 
322 432.38 3.65518399e+02 5.23760915e+01 
323 433.19 3.81748721e+02 5.36201391e+01 
324 433.99 3.90173846e+02 5.41576549e+01 
325 434.80 4.05656113e+02 5.46650202e+01 
326 435.60 4.27636202e+02 5.48162732e+01 
327 436.41 4.43027215e+02 5.43331439e+01 
328 437.21 4.43668297e+02 5.30653234e+01 
329 438.02 4.37841263e+02 5.21261003e+01 
330 438.82 4.39771377e+02 5.15906769e+01 
331 439.63 4.52498275e+02 5.11323784e+01 
332 440.43 4.71663096e+02 5.24613905e+01 
333 441.24 4.91811925e+02 5.37246722e+01 
334 442.04 5.09944138e+02 5.41494941e+01 
335 442.85 5.22638041e+02 5.48089037e+01 
336 443.65 5.30032206e+02 5.47714419e+01 
337 444.45 5.32940994e+02 5.41534645e+01 
338 445.26 5.32608358e+02 5.42338329e+01 
339 446.06 5.36519811e+02 5.52247709e+01 
340 446.87 5.48797791e+02 5.57849586e+01 
341 447.67 5.64461975e+02 5.63582744e+01 
342 448.48 5.76928899e+02 5.81884562e+01 
343 449.28 5.88510198e+02 6.00578175e+01 
344 450.09 6.01272939e+02 6.09689557e+01 
345 450.89 6.08557185e+02 6.07505813e+01 
346 451.70 6.03500926e+02 6.04668802e+01 
347 452.50 5.91797826e+02 6.07513294e+01 
348 453.30 5.85822031e+02 6.09491319e+01 
349 454.11 5.88724472e+02 6.07506534e+01 
350 454.91 5.98004694e+02 6.20302275e+01 
351 455.72 6.08171835e+02 6.35891434e+01 
352 456.52 6.16543177e+02 6.44083832e+01 
353 457.32 6.19950979e+02 6.51089662e+01 
354 458.13 6.18600205e+02 6.60460990e+01 
355 458.93 6.17359294e+02 6.70457267e+01 
356 459.74 6.21005946e+02 6.82569879e+01 
357 460.54 6.29374329e+02 6.94991362e+01 
358 461.34 6.38398320e+02 7.03324460e+01 
359 462.15 6.44456909e+02 7.10827895e+01 
360 462.95 6.44610107e+02 7.14151955e+01 
361 463.76 6.40194301e+02 7.16441432e+01 
362 464.56 6.35808757e+02 7.22636607e+01 
363 465.36 6.32896001e+02 7.22452243e+01 
364 466.17 6.31428894e+02 7.23639885e+01 
365 466.97 6.32063462e+02 7.29941656e+01 
366 467.77 6.34953588e+02 7.32550873e+01 
367 468.58 6.38402787e+02 7.32637770e+01 
368 469.38 6.38886530e+02 7.34498464e+01 
369 470.18 6.39783386e+02 7.49954412e+01 
370 470.99 6.46002162e+02 7.61437493e+01 
371 471.79 6.55772400e+02 7.66838835e+01 
372 472.59 6.64277288e+02 7.75022591e+01 
373 473.40 6.70439728e+02 7.93530991e+01 
374 474.20 6.74125956e+02 7.93607960e+01 
375 475.00 6.76835256e+02 7.95918799e+01 
376 475.81 6.78709564e+02 8.02710779e+01 
377 476.61 6.82660009e+02 8.10726223e+01 
378 477.41 6.89339457e+02 8.09340909e+01 
379 478.21 6.96119390e+02 8.13164242e+01 
380 479.02 7.00720667e+02 8.18492865e+01 
381 479.82 7.03618480e+02 8.22439906e+01 
382 480.62 7.06537318e+02 8.20578271e+01 
383 481.43 7.08325403e+02 8.20024981e+01 
384 482.23 7.06960231e+02 8.10956549e+01 
385 483.03 7.01864329e+02 8.01254330e+01 
386 483.84 6.90697082e+02 7.80705616e+01 
387 484.64 6.68937058e+02 7.46376373e+01 
388 485.44 6.42016811e+02 7.27439912e+01 
389 486.24 6.25954117e+02 7.25205031e+01 
390 487.04 6.28675273e+02 7.16569397e+01 
391 487.85 6.46850149e+02 7.19808151e+01 
392 488.65 6.68447785e+02 7.39630504e+01 
393 489.45 6.83520808e+02 7.49191302e+01 
394 490.26 6.88757523e+02 7.42346671e+01 
395 491.06 6.86643722e+02 7.42017371e+01 
396 491.86 6.82094127e+02 7.44092786e+01 
397 492.66 6.81952174e+02 7.40961428e+01 
398 493.46 6.88760132e+02 7.38980963e+01 
399 494.27 6.97102427e+02 7.41435090e+01 
400 495.07 7.01768127e+02 7.42898016e+01 
401 495.87 7.03682384e+02 7.41566294e+01 
402 496.67 7.01087774e+02 7.31535355e+01 
403 497.48 6.95975860e+02 7.21491900e+01 
404 498.28 6.90760361e+02 7.15237604e+01 
405 499.08 6.84485138e+02 7.00131951e+01 
406 499.88 6.77495077e+02 6.84853742e+01 
407 500.68 6.71290736e+02 6.79713662e+01 
408 501.48 6.68115931e+02 6.75382280e+01 
409 502.29 6.70181691e+02 6.67389718e+01 
410 503.09 6.74792389e+02 6.63719232e+01 
411 503.89 6.81022456e+02 6.71785892e+01 
412 504.69 6.88662705e+02 6.83063899e+01 
413 505.49 6.94616908e+02 6.79005863e+01 
414 506.29 6.96096650e+02 6.74380218e+01 
415 507.09 6.92825638e+02 6.74657078e+01 
416 507.90 6.89325734e+02 6.77003669e+01 
417 508.70 6.87700130e+02 6.65164537e+01 
418 509.50 6.88569056e+02 6.61385165e+01 
419 510.30 6.90254415e+02 6.64779058e+01 
420 511.10 6.89283631e+02 6.58601950e+01 
421 511.90 6.85129425e+02 6.51853273e+01 
422 512.71 6.77818949e+02 6.46281675e+01 
423 513.51 6.69814565e+02 6.45271905e+01 
424 514.31 6.63326787e+02 6.38219180e+01 
425 515.11 6.53355890e+02 6.16375725e+01 
426 515.91 6.36524862e+02 6.01192106e+01 
427 516.71 6.19279638e+02 6.05098150e+01 
428 517.51 6.09144709e+02 6.04900775e+01 
429 518.31 6.12784617e+02 6.04743034e+01 
430 519.11 6.27556748e+02 6.11905240e+01 
431 519.91 6.43059184e+02 6.23034847e+01 
432 520.71 6.54688014e+02 6.32513076e+01 
433 521.52 6.59800369e+02 6.40580089e+01 
434 522.32 6.62611277e+02 6.53287569e+01 
435 523.12 6.67285782e+02 6.64186856e+01 
436 523.92 6.72038014e+02 6.62952170e+01 
437 524.72 6.71851847e+02 6.53180110e+01 
438 525.52 6.62815135e+02 6.51141740e+01 
439 526.32 6.50933431e+02 6.59055396e+01 
440 527.12 6.47997899e+02 6.66477988e+01 
441 527.92 6.56621002e+02 6.68448532e+01 
442 528.72 6.71514308e+02 6.74179032e+01 
443 529.52 6.84392186e+02 6.86317891e+01 
444 530.32 6.90266077e+02 6.94409088e+01 
445 531.12 6.88109095e+02 6.91447555e+01 
446 531.92 6.81483337e+02 6.91833897e+01 
447 532.72 6.75134298e+02 6.98066251e+01 
448 533.52 6.73765417e+02 6.99337057e+01 
449 534.32 6.78528742e+02 7.00577718e+01 
450 535.12 6.83873256e+02 7.01410237e+01 
451 535.92 6.84917705e+02 7.04841543e+01 
452 536.72 6.82951665e+02 7.12004464e+01 
453 537.52 6.79874029e+02 7.16439424e+01 
454 538.32 6.75212896e+02 7.11073968e+01 
455 539.12 6.69290141e+02 7.09538041e+01 
456 539.92 6.63748429e+02 7.12733124e+01 
457 540.72 6.61446574e+02 7.11228118e+01 
458 541.52 6.63498581e+02 7.11662359e+01 
459 542.32 6.68591467e+02 7.16747143e+01 
460 543.12 6.73663020e+02 7.26620333e+01 
461 543.92 6.77216741e+02 7.29948855e+01 
