% C0 (TOA Count Rate, /ms) for 4STAR VIS spectrometer (1044 channels) derived from (SEE Original files for sources) and recorded on 2018-04-12 18:07:04.
% Langley at MLO and airborne Data outside 2.0x the STD of 501 nm Langley residuals were screened out. 
% Including high Altitude rate spectra, matched to splined stratospheric AOD measured at MLO.
% Averages of c0 from multiple days including: , MLO -av-g-, infl-ig-ht, infl-ig-ht, high- a-lt, high- a-lt, Ames- r-oo. See the list of files below
% 20170605_VIS_C0_refined_Langley_MLO_May2017_averages.dat
% 20170807_VIS_C0_refined_langley_4STARpm.dat
% 20170807_VIS_C0_refined_langley_4STAR_subset_pm.dat
% 20170809_VIS_C0_refined_high_alt_low_m_frompolyfit.dat
% 20170815_VIS_C0_refined_high_alt_low_m_frompolyfit.dat
% 20171205_VIS_C0_refined_langley_4STARpm_Ames_roof_.dat
Pix Wavelength C0 C0err
0 173.18 -6.66666667e-01 5.16397779e-01 
1 173.98 -1.00000000e+00 0.00000000e+00 
2 174.77 -1.00000000e+00 0.00000000e+00 
3 175.56 -1.00000000e+00 0.00000000e+00 
4 176.36 -1.00000000e+00 0.00000000e+00 
5 177.15 -1.00000000e+00 0.00000000e+00 
6 177.94 -1.00000000e+00 0.00000000e+00 
7 178.74 -1.00000000e+00 0.00000000e+00 
8 179.53 -1.00000000e+00 0.00000000e+00 
9 180.33 -1.00000000e+00 0.00000000e+00 
10 181.12 -1.00000000e+00 0.00000000e+00 
11 181.92 -1.00000000e+00 0.00000000e+00 
12 182.71 -1.00000000e+00 0.00000000e+00 
13 183.51 -1.00000000e+00 0.00000000e+00 
14 184.30 -1.00000000e+00 0.00000000e+00 
15 185.10 -1.00000000e+00 0.00000000e+00 
16 185.89 -1.00000000e+00 0.00000000e+00 
17 186.69 -1.00000000e+00 0.00000000e+00 
18 187.49 -1.00000000e+00 0.00000000e+00 
19 188.28 -1.00000000e+00 0.00000000e+00 
20 189.08 -1.00000000e+00 0.00000000e+00 
21 189.88 -1.00000000e+00 0.00000000e+00 
22 190.67 -1.00000000e+00 0.00000000e+00 
23 191.47 -1.00000000e+00 0.00000000e+00 
24 192.27 -1.00000000e+00 0.00000000e+00 
25 193.07 -1.00000000e+00 0.00000000e+00 
26 193.86 -1.00000000e+00 0.00000000e+00 
27 194.66 -1.00000000e+00 0.00000000e+00 
28 195.46 -1.00000000e+00 0.00000000e+00 
29 196.26 -1.00000000e+00 0.00000000e+00 
30 197.05 -1.00000000e+00 0.00000000e+00 
31 197.85 -1.00000000e+00 0.00000000e+00 
32 198.65 -1.00000000e+00 0.00000000e+00 
33 199.45 -1.00000000e+00 0.00000000e+00 
34 200.25 -1.00000000e+00 0.00000000e+00 
35 201.05 -1.00000000e+00 0.00000000e+00 
36 201.85 -1.00000000e+00 0.00000000e+00 
37 202.65 -1.00000000e+00 0.00000000e+00 
38 203.44 -1.00000000e+00 0.00000000e+00 
39 204.24 -1.00000000e+00 0.00000000e+00 
40 205.04 -1.00000000e+00 0.00000000e+00 
41 205.84 -1.00000000e+00 0.00000000e+00 
42 206.64 5.04691930e+37 1.23623771e+38 
43 207.44 1.32832368e-01 2.77486127e+00 
44 208.24 -5.06159344e-01 1.10982886e+00 
45 209.04 -5.85668747e-01 9.12764323e-01 
46 209.84 -5.10835265e-01 1.05045829e+00 
47 210.64 -4.18940440e-01 1.02110828e+00 
48 211.44 -4.25098660e-01 1.03924214e+00 
49 212.24 -4.66611346e-01 1.01522187e+00 
50 213.04 3.31980536e-01 2.47469933e+00 
51 213.85 1.15445904e+00 4.81512070e+00 
52 214.65 1.91405641e+00 6.65366125e+00 
53 215.45 5.93564322e+34 1.45392972e+35 
54 216.25 6.31402073e+33 1.54661290e+34 
55 217.05 6.76038592e+32 1.65594960e+33 
56 217.85 7.28285992e+31 1.78392907e+32 
57 218.65 7.81594560e+30 1.91450786e+31 
58 219.46 8.38017353e+29 2.05271491e+30 
59 220.26 9.05342572e+28 2.21762734e+29 
60 221.06 9.71340728e+27 2.37928915e+28 
61 221.86 1.06502607e+27 2.60877042e+27 
62 222.66 1.15436564e+26 2.82760679e+26 
63 223.47 1.25714461e+25 3.07936283e+25 
64 224.27 1.36139517e+24 3.33472351e+24 
65 225.07 1.47966282e+23 3.62441890e+23 
66 225.87 1.62978335e+22 3.99213760e+22 
67 226.68 1.81804593e+21 4.45328487e+21 
68 227.48 2.12191835e+20 5.19761723e+20 
69 228.28 2.89398175e+19 7.08877861e+19 
70 229.08 5.63723570e+18 1.38083510e+19 
71 229.89 2.14459762e+18 5.25316986e+18 
72 230.69 2.04959047e+18 5.02045083e+18 
73 231.49 5.30678042e+18 1.29989042e+19 
74 232.30 3.01425367e+19 7.38338344e+19 
75 233.10 2.80222085e+20 6.86401123e+20 
76 233.90 3.19908922e+21 7.83613622e+21 
77 234.71 4.01166333e+22 9.82652819e+22 
78 235.51 5.19357127e+23 1.27215995e+24 
79 236.32 6.95710575e+24 1.70413592e+25 
80 237.12 9.41587488e+25 2.30640889e+26 
81 237.92 1.29224017e+27 3.16532904e+27 
82 238.73 1.80432620e+28 4.41967852e+28 
83 239.53 2.53272982e+29 6.20389571e+29 
84 240.34 3.40516282e+30 8.34091139e+30 
85 241.14 4.28571618e+31 1.04978178e+32 
86 241.94 4.97786780e+32 1.21932361e+33 
87 242.75 5.28384252e+33 1.29427180e+34 
88 243.55 5.12937715e+34 1.25643567e+35 
89 244.36 8.84005151e-01 4.17427422e+00 
90 245.16 5.49931104e-01 3.31536653e+00 
91 245.97 1.90062111e-02 2.06110742e+00 
92 246.77 -4.81467540e-01 9.87055026e-01 
93 247.58 -5.18948592e-01 9.21235228e-01 
94 248.38 -4.57936315e-01 9.37599625e-01 
95 249.19 -4.73201432e-01 1.00264782e+00 
96 249.99 -4.94793498e-01 9.42889206e-01 
97 250.80 -5.33378815e-01 8.55868282e-01 
98 251.60 1.49975524e+11 3.67363508e+11 
99 252.41 -5.39873811e-01 1.01834738e+00 
100 253.21 -5.53463082e-01 9.48463177e-01 
101 254.02 -4.66070618e-01 1.13362429e+00 
102 254.82 -5.13360743e-01 1.08206540e+00 
103 255.63 -5.90476966e-01 8.60513711e-01 
104 256.44 -5.96093492e-01 8.49207180e-01 
105 257.24 -5.32262570e-01 9.74144617e-01 
106 258.05 1.02006821e+06 2.49864800e+06 
107 258.85 -2.51693091e-01 1.17506416e+00 
108 259.66 -5.38740504e-01 9.00896840e-01 
109 260.46 -4.91718150e-01 9.48827132e-01 
110 261.27 -4.72043591e-01 9.82455583e-01 
111 262.08 -5.07325931e-01 9.09773813e-01 
112 262.88 -3.30531697e-01 1.28373689e+00 
113 263.69 2.81800422e-01 2.69077828e+00 
114 264.49 4.79774802e-01 3.15988880e+00 
115 265.30 6.69413353e-01 3.62895247e+00 
116 266.11 1.45258201e+34 3.55808473e+34 
117 266.91 1.17133887e+33 2.86918254e+33 
118 267.72 8.17530250e+31 2.00253196e+32 
119 268.53 4.85457905e+30 1.18912416e+31 
120 269.33 3.15707023e+29 7.73321115e+29 
121 270.14 2.42352887e+28 5.93640910e+28 
122 270.95 1.71067982e+27 4.19029266e+27 
123 271.75 1.09744255e+26 2.68817428e+26 
124 272.56 6.48373232e+24 1.58818358e+25 
125 273.37 3.28167745e+23 8.03843525e+23 
126 274.17 1.67225560e+22 4.09617294e+22 
127 274.98 1.01052941e+21 2.47528143e+21 
128 275.79 6.93938790e+19 1.69979595e+20 
129 276.59 5.17760722e+18 1.26824958e+19 
130 277.40 4.07575262e+17 9.98351423e+17 
131 278.21 3.11281133e+16 7.62479943e+16 
132 279.01 3.08827395e+33 7.56469536e+33 
133 279.82 1.80736393e+31 4.42711942e+31 
134 280.63 1.01730969e+29 2.49188965e+29 
135 281.43 6.52800660e+26 1.59902852e+27 
136 282.24 6.44255458e+24 1.57809714e+25 
137 283.05 9.57910117e+22 2.34639101e+23 
138 283.86 1.70912357e+21 4.18648065e+21 
139 284.66 3.14005743e+19 7.69153847e+19 
140 285.47 7.78914837e+17 1.90794390e+18 
141 286.28 2.86051694e+16 7.00680689e+16 
142 287.09 1.22034589e+15 2.98922471e+15 
143 287.89 5.33265557e+13 1.30622848e+14 
144 288.70 2.90916903e+12 7.12597883e+12 
145 289.51 2.22113259e+11 5.44063888e+11 
146 290.32 2.08967070e+10 5.11861837e+10 
147 291.12 2.23109507e+09 5.46501455e+09 
148 291.93 2.65674585e+08 6.50756251e+08 
149 292.74 3.86593787e+07 9.46913542e+07 
150 293.55 6.70869920e+06 1.64309543e+07 
151 294.35 1.38094928e+06 3.38170621e+06 
152 295.16 3.19004809e+05 7.80938661e+05 
153 295.97 8.25421683e+04 2.01939192e+05 
154 296.78 2.38841286e+04 5.83634879e+04 
155 297.58 7.62238208e+03 1.85882493e+04 
156 298.39 2.78148359e+03 6.76100403e+03 
157 299.20 1.14827491e+03 2.77770681e+03 
158 300.01 5.13876203e+02 1.23401673e+03 
159 300.81 2.54670133e+02 6.05611207e+02 
160 301.62 1.32190414e+02 3.09789820e+02 
161 302.43 7.58473294e+01 1.74741179e+02 
162 303.24 4.63585638e+01 1.04451344e+02 
163 304.04 2.97569325e+01 6.51821005e+01 
164 304.85 2.00121050e+01 4.23587747e+01 
165 305.66 1.41172610e+01 2.87499886e+01 
166 306.47 1.04324147e+01 2.03080828e+01 
167 307.28 8.03699934e+00 1.48858656e+01 
168 308.08 6.42993907e+00 1.13255415e+01 
169 308.89 5.35456933e+00 8.97999128e+00 
170 309.70 4.39399849e+00 6.90150660e+00 
171 310.51 3.79846193e+00 5.57514394e+00 
172 311.32 3.31751057e+00 4.58208477e+00 
173 312.12 2.91975372e+00 3.75821279e+00 
174 312.93 2.60177694e+00 3.12191729e+00 
175 313.74 2.42777679e+00 2.73981816e+00 
176 314.55 2.25622722e+00 2.38957392e+00 
177 315.36 2.12790342e+00 2.11534573e+00 
178 316.16 2.02112700e+00 1.90901167e+00 
179 316.97 1.96815972e+00 1.76888771e+00 
180 317.78 1.89034689e+00 1.59908304e+00 
181 318.59 1.84175477e+00 1.48599911e+00 
182 319.40 1.78567433e+00 1.40849468e+00 
183 320.20 1.75689355e+00 1.28696700e+00 
184 321.01 1.71996879e+00 1.20076742e+00 
185 321.82 1.71788524e+00 1.14580362e+00 
186 322.63 1.71590358e+00 1.08779823e+00 
187 323.43 1.69478684e+00 1.02321267e+00 
188 324.24 1.69036421e+00 9.86885790e-01 
189 325.05 1.69282150e+00 9.57560842e-01 
190 325.86 1.69720315e+00 9.26390289e-01 
191 326.67 1.71447528e+00 8.61447438e-01 
192 327.48 1.71566604e+00 8.62989142e-01 
193 328.28 1.74007906e+00 8.48832695e-01 
194 329.09 1.75721777e+00 8.25647677e-01 
195 329.90 1.81141420e+00 8.12454676e-01 
196 330.71 1.85189245e+00 8.27233246e-01 
197 331.52 1.94061042e+00 8.11970220e-01 
198 332.32 2.07882629e+00 8.26050177e-01 
199 333.13 2.35022470e+00 8.46335203e-01 
200 333.94 2.85959363e+00 9.14070778e-01 
201 334.75 3.64888497e+00 1.02049874e+00 
202 335.55 4.76065992e+00 1.11389200e+00 
203 336.36 6.35781882e+00 1.27655680e+00 
204 337.17 8.86335874e+00 1.44273036e+00 
205 337.98 1.24328650e+01 1.48546114e+00 
206 338.79 1.66146469e+01 1.64243700e+00 
207 339.60 2.12847257e+01 1.85557810e+00 
208 340.40 2.55786564e+01 1.96385161e+00 
209 341.21 2.91899080e+01 2.07520372e+00 
210 342.02 3.35019785e+01 2.06366590e+00 
211 342.83 3.72326758e+01 2.26837924e+00 
212 343.63 3.82592362e+01 2.30743042e+00 
213 344.44 3.97940919e+01 2.26440564e+00 
214 345.25 4.43244153e+01 2.33976389e+00 
215 346.06 4.85457186e+01 2.49494075e+00 
216 346.87 5.13606033e+01 2.57519179e+00 
217 347.67 5.33211494e+01 2.68881045e+00 
218 348.48 5.53169240e+01 2.65701673e+00 
219 349.29 5.87535439e+01 2.70106709e+00 
220 350.10 6.46167212e+01 2.83376822e+00 
221 350.90 6.85299392e+01 3.02505525e+00 
222 351.71 6.87495348e+01 3.07944895e+00 
223 352.52 7.02665647e+01 2.99465683e+00 
224 353.33 7.66928552e+01 3.07807512e+00 
225 354.14 8.43829937e+01 3.49383780e+00 
226 354.94 8.78341543e+01 3.72467551e+00 
227 355.75 8.62745234e+01 3.85500963e+00 
228 356.56 8.14307829e+01 3.58308048e+00 
229 357.37 7.66811025e+01 3.31216385e+00 
230 358.18 7.59548664e+01 3.03544453e+00 
231 358.98 8.54055826e+01 3.34529923e+00 
232 359.79 9.82030616e+01 4.03140920e+00 
233 360.60 9.98186375e+01 4.35510210e+00 
234 361.41 9.85392592e+01 4.20801114e+00 
235 362.21 1.04028445e+02 4.28123821e+00 
236 363.02 1.10165312e+02 4.56981742e+00 
237 363.83 1.13853123e+02 4.79627308e+00 
238 364.64 1.19514447e+02 4.92027441e+00 
239 365.44 1.30307046e+02 5.31339785e+00 
240 366.25 1.39387007e+02 5.96682519e+00 
241 367.06 1.40472724e+02 6.16671163e+00 
242 367.87 1.38232682e+02 6.12538559e+00 
243 368.67 1.40263463e+02 6.13415234e+00 
244 369.48 1.46278262e+02 6.43041554e+00 
245 370.29 1.47417276e+02 6.66068571e+00 
246 371.10 1.45722777e+02 6.62464520e+00 
247 371.90 1.41952879e+02 6.54625130e+00 
248 372.71 1.33989558e+02 6.33830709e+00 
249 373.52 1.26630729e+02 5.90296257e+00 
250 374.33 1.26038658e+02 5.81255644e+00 
251 375.13 1.34952574e+02 6.10769453e+00 
252 375.94 1.46873824e+02 6.72436345e+00 
253 376.75 1.59621501e+02 7.45951163e+00 
254 377.56 1.74620568e+02 8.18099846e+00 
255 378.36 1.78271236e+02 8.75364079e+00 
256 379.17 1.68835794e+02 8.68457996e+00 
257 379.98 1.65266165e+02 8.29638158e+00 
258 380.78 1.65156720e+02 8.14917491e+00 
259 381.59 1.50420807e+02 7.99454224e+00 
260 382.40 1.28099607e+02 6.98051834e+00 
261 383.20 1.18112478e+02 5.99781535e+00 
262 384.01 1.28518168e+02 6.20276873e+00 
263 384.82 1.45237775e+02 6.99896094e+00 
264 385.63 1.51785623e+02 7.75320111e+00 
265 386.43 1.52962676e+02 7.98169104e+00 
266 387.24 1.53984595e+02 8.09615203e+00 
267 388.05 1.56320729e+02 8.38754467e+00 
268 388.85 1.65889986e+02 8.86874361e+00 
269 389.66 1.81240207e+02 9.81290140e+00 
270 390.47 1.93345900e+02 1.07477287e+01 
271 391.27 1.94173394e+02 1.11644924e+01 
272 392.08 1.72880688e+02 1.08878260e+01 
273 392.89 1.39882122e+02 9.45909282e+00 
274 393.69 1.32864423e+02 8.33440077e+00 
275 394.50 1.59418368e+02 9.23600384e+00 
276 395.31 1.77936894e+02 1.05574974e+01 
277 396.11 1.64971615e+02 1.11197559e+01 
278 396.92 1.56056562e+02 1.07246492e+01 
279 397.73 1.85251485e+02 1.19352374e+01 
280 398.53 2.28304599e+02 1.45352744e+01 
281 399.34 2.54921517e+02 1.70427781e+01 
282 400.15 2.67757457e+02 1.84529093e+01 
283 400.95 2.77008513e+02 1.92104134e+01 
284 401.76 2.84375647e+02 1.97652559e+01 
285 402.57 2.86435304e+02 2.00733709e+01 
286 403.37 2.84744297e+02 2.00362259e+01 
287 404.18 2.83573348e+02 1.97981716e+01 
288 404.99 2.82347523e+02 1.96552887e+01 
289 405.79 2.80981750e+02 1.95016651e+01 
290 406.60 2.81872160e+02 1.95576979e+01 
291 407.40 2.89063685e+02 1.98547980e+01 
292 408.21 3.00182181e+02 2.03023599e+01 
293 409.02 3.04346687e+02 2.06186378e+01 
294 409.82 3.00170417e+02 2.09114868e+01 
295 410.63 3.03663666e+02 2.10022659e+01 
296 411.43 3.16843286e+02 2.14759012e+01 
297 412.24 3.24808368e+02 2.25441168e+01 
298 413.05 3.24981513e+02 2.31814518e+01 
299 413.85 3.24232810e+02 2.34077800e+01 
300 414.66 3.23998863e+02 2.38234896e+01 
301 415.46 3.24490872e+02 2.43230412e+01 
302 416.27 3.23916289e+02 2.47048695e+01 
303 417.08 3.18796684e+02 2.50659118e+01 
304 417.88 3.12312676e+02 2.52217136e+01 
305 418.69 3.09213362e+02 2.53567837e+01 
306 419.49 3.09150147e+02 2.59873613e+01 
307 420.30 3.12401444e+02 2.67536251e+01 
308 421.11 3.15471904e+02 2.72512744e+01 
309 421.91 3.12204149e+02 2.76087503e+01 
310 422.72 3.06375668e+02 2.75964348e+01 
311 423.52 3.06085105e+02 2.73757801e+01 
312 424.33 3.09502046e+02 2.74672667e+01 
313 425.13 3.11623207e+02 2.75739925e+01 
314 425.94 3.11995143e+02 2.72172898e+01 
315 426.74 3.11843240e+02 2.67250948e+01 
316 427.55 3.11740321e+02 2.60559892e+01 
317 428.36 3.08625105e+02 2.48195838e+01 
318 429.16 2.97010086e+02 2.32669722e+01 
319 429.96 2.84618785e+02 2.18543981e+01 
320 430.77 2.93535025e+02 2.11545930e+01 
321 431.58 3.26446521e+02 2.11527638e+01 
322 432.38 3.59605778e+02 2.17683990e+01 
323 433.19 3.75669602e+02 2.22616353e+01 
324 433.99 3.84993643e+02 2.20271883e+01 
325 434.80 4.02056915e+02 2.15601645e+01 
326 435.60 4.25525010e+02 2.10304860e+01 
327 436.41 4.41720111e+02 2.05632439e+01 
328 437.21 4.42948687e+02 1.99312212e+01 
329 438.02 4.38228851e+02 1.90393930e+01 
330 438.82 4.42118545e+02 1.79096200e+01 
331 439.63 4.56829910e+02 1.69242977e+01 
332 440.43 4.77311237e+02 1.68748621e+01 
333 441.24 4.98740638e+02 1.68681385e+01 
334 442.04 5.18035273e+02 1.66562508e+01 
335 442.85 5.31416838e+02 1.66847235e+01 
336 443.65 5.39616707e+02 1.63769134e+01 
337 444.45 5.43470571e+02 1.58064558e+01 
338 445.26 5.43858013e+02 1.54956409e+01 
339 446.06 5.48900743e+02 1.52902058e+01 
340 446.87 5.62758738e+02 1.48997456e+01 
341 447.67 5.79717071e+02 1.46719454e+01 
342 448.48 5.92878389e+02 1.50269211e+01 
343 449.28 6.05386029e+02 1.53177658e+01 
344 450.09 6.19388801e+02 1.53070755e+01 
345 450.89 6.27561400e+02 1.51533103e+01 
346 451.70 6.22323825e+02 1.52442214e+01 
347 452.50 6.10599855e+02 1.51456377e+01 
348 453.30 6.05546004e+02 1.46592785e+01 
349 454.11 6.09858220e+02 1.40542284e+01 
350 454.91 6.19964069e+02 1.41578544e+01 
351 455.72 6.30852597e+02 1.44083887e+01 
352 456.52 6.40100167e+02 1.44479649e+01 
353 457.32 6.44227566e+02 1.44767678e+01 
354 458.13 6.43290695e+02 1.45670365e+01 
355 458.93 6.42664931e+02 1.45333347e+01 
356 459.74 6.47145059e+02 1.45244066e+01 
357 460.54 6.56163045e+02 1.46977292e+01 
358 461.34 6.65803875e+02 1.47880825e+01 
359 462.15 6.72097280e+02 1.49997894e+01 
360 462.95 6.72378509e+02 1.50478139e+01 
361 463.76 6.68034941e+02 1.50582242e+01 
362 464.56 6.63732222e+02 1.51883611e+01 
363 465.36 6.60899162e+02 1.51562221e+01 
364 466.17 6.59633280e+02 1.50119628e+01 
365 466.97 6.60562821e+02 1.49659133e+01 
366 467.77 6.64257997e+02 1.46785827e+01 
367 468.58 6.68264918e+02 1.45456484e+01 
368 469.38 6.68788735e+02 1.46287706e+01 
369 470.18 6.69396301e+02 1.51252300e+01 
370 470.99 6.76235136e+02 1.52640607e+01 
371 471.79 6.86784648e+02 1.52249314e+01 
372 472.59 6.95790997e+02 1.53088880e+01 
373 473.40 7.02186686e+02 1.56495016e+01 
374 474.20 7.06605207e+02 1.53238445e+01 
375 475.00 7.09511807e+02 1.52805805e+01 
376 475.81 7.11440216e+02 1.54112808e+01 
377 476.61 7.15635754e+02 1.55399952e+01 
378 477.41 7.22967828e+02 1.53528453e+01 
379 478.21 7.30036389e+02 1.54472810e+01 
380 479.02 7.34623493e+02 1.56856802e+01 
381 479.82 7.37386925e+02 1.58848305e+01 
382 480.62 7.40401284e+02 1.58740430e+01 
383 481.43 7.41988727e+02 1.59639444e+01 
384 482.23 7.40329039e+02 1.58508999e+01 
385 483.03 7.34632714e+02 1.57722890e+01 
386 483.84 7.22744609e+02 1.54966429e+01 
387 484.64 6.99463852e+02 1.51665981e+01 
388 485.44 6.70557911e+02 1.49637279e+01 
389 486.24 6.53910660e+02 1.44929513e+01 
390 487.04 6.57992232e+02 1.36120250e+01 
391 487.85 6.77475755e+02 1.33474637e+01 
392 488.65 6.99518514e+02 1.39005389e+01 
393 489.45 7.14455168e+02 1.44046585e+01 
394 490.26 7.19345901e+02 1.44816539e+01 
395 491.06 7.16098943e+02 1.49098772e+01 
396 491.86 7.10597782e+02 1.51894602e+01 
397 492.66 7.10399280e+02 1.49883800e+01 
398 493.46 7.17685852e+02 1.47155905e+01 
399 494.27 7.26118646e+02 1.47607956e+01 
400 495.07 7.30685405e+02 1.48240520e+01 
401 495.87 7.32318383e+02 1.49354907e+01 
402 496.67 7.29260164e+02 1.49296963e+01 
403 497.48 7.23549377e+02 1.49579030e+01 
404 498.28 7.17661799e+02 1.50712380e+01 
405 499.08 7.10714600e+02 1.49668940e+01 
406 499.88 7.02969398e+02 1.48169396e+01 
407 500.68 6.96101052e+02 1.48212407e+01 
408 501.48 6.92766661e+02 1.46472708e+01 
409 502.29 6.95141588e+02 1.42507855e+01 
410 503.09 6.99943899e+02 1.40510460e+01 
411 503.89 7.06176736e+02 1.42823515e+01 
412 504.69 7.13883601e+02 1.46194623e+01 
413 505.49 7.20075051e+02 1.45004246e+01 
414 506.29 7.21225871e+02 1.45645675e+01 
415 507.09 7.17245580e+02 1.48009664e+01 
416 507.90 7.13115587e+02 1.50238102e+01 
417 508.70 7.11729989e+02 1.45828056e+01 
418 509.50 7.12704863e+02 1.44742996e+01 
419 510.30 7.14239407e+02 1.47005629e+01 
420 511.10 7.13094350e+02 1.46858335e+01 
421 511.90 7.08437937e+02 1.47307902e+01 
422 512.71 7.00723179e+02 1.47066586e+01 
423 513.51 6.92489092e+02 1.46493432e+01 
424 514.31 6.86087190e+02 1.43846391e+01 
425 515.11 6.76090666e+02 1.39110968e+01 
426 515.91 6.58693600e+02 1.37228831e+01 
427 516.71 6.40807273e+02 1.37968748e+01 
428 517.51 6.30786507e+02 1.33965502e+01 
429 518.31 6.35521590e+02 1.28369357e+01 
430 519.11 6.51340632e+02 1.27802458e+01 
431 519.91 6.67423658e+02 1.30538908e+01 
432 520.71 6.79233905e+02 1.34583862e+01 
433 521.52 6.84068944e+02 1.39630005e+01 
434 522.32 6.86711958e+02 1.44237582e+01 
435 523.12 6.91668778e+02 1.47178041e+01 
436 523.92 6.96908780e+02 1.46181083e+01 
437 524.72 6.96911889e+02 1.44968646e+01 
438 525.52 6.87123427e+02 1.47350235e+01 
439 526.32 6.74655880e+02 1.48596687e+01 
440 527.12 6.72331280e+02 1.45669971e+01 
441 527.92 6.82256755e+02 1.41074077e+01 
442 528.72 6.98179584e+02 1.40490777e+01 
443 529.52 7.11436006e+02 1.44145322e+01 
444 530.32 7.17323993e+02 1.48499152e+01 
445 531.12 7.14910694e+02 1.50318854e+01 
446 531.92 7.07980479e+02 1.51785592e+01 
447 532.72 7.01534309e+02 1.52902499e+01 
448 533.52 7.00781811e+02 1.50099440e+01 
449 534.32 7.06437641e+02 1.47881764e+01 
450 535.12 7.12262032e+02 1.48238746e+01 
451 535.92 7.13213789e+02 1.50616231e+01 
452 536.72 7.11245047e+02 1.51538781e+01 
453 537.52 7.08253704e+02 1.51775743e+01 
454 538.32 7.04000327e+02 1.48106668e+01 
455 539.12 6.98146081e+02 1.46867945e+01 
