% C0 (TOA Count Rate, /ms) for 4STAR VIS spectrometer (1044 channels) derived from 4STAR_20170903starsun.mat and recorded on 2018-04-13 15:49:27.
% Using a high altitude AOD spectra from Bonanza AERONET station, which has been polyfit to extrapolate, calculating the c0 from the comparison 4STARs AOD at low airmass to AERONET. 
Pix Wavelength C0 C0err
0 173.18 0.00000000e+00 0.00000000e+00 
1 173.98 -1.00000000e+00 0.00000000e+00 
2 174.77 -1.00000000e+00 0.00000000e+00 
3 175.56 -1.00000000e+00 0.00000000e+00 
4 176.36 -1.00000000e+00 0.00000000e+00 
5 177.15 -1.00000000e+00 0.00000000e+00 
6 177.94 -1.00000000e+00 0.00000000e+00 
7 178.74 -1.00000000e+00 0.00000000e+00 
8 179.53 -1.00000000e+00 0.00000000e+00 
9 180.33 -1.00000000e+00 0.00000000e+00 
10 181.12 -1.00000000e+00 0.00000000e+00 
11 181.92 -1.00000000e+00 0.00000000e+00 
12 182.71 -1.00000000e+00 0.00000000e+00 
13 183.51 -1.00000000e+00 0.00000000e+00 
14 184.30 -1.00000000e+00 0.00000000e+00 
15 185.10 -1.00000000e+00 0.00000000e+00 
16 185.89 -1.00000000e+00 0.00000000e+00 
17 186.69 -1.00000000e+00 0.00000000e+00 
18 187.49 -1.00000000e+00 0.00000000e+00 
19 188.28 -1.00000000e+00 0.00000000e+00 
20 189.08 -1.00000000e+00 0.00000000e+00 
21 189.88 -1.00000000e+00 0.00000000e+00 
22 190.67 -1.00000000e+00 0.00000000e+00 
23 191.47 -1.00000000e+00 0.00000000e+00 
24 192.27 -1.00000000e+00 0.00000000e+00 
25 193.07 -1.00000000e+00 0.00000000e+00 
26 193.86 -1.00000000e+00 0.00000000e+00 
27 194.66 -1.00000000e+00 0.00000000e+00 
28 195.46 -1.00000000e+00 0.00000000e+00 
29 196.26 -1.00000000e+00 0.00000000e+00 
30 197.05 -1.00000000e+00 0.00000000e+00 
31 197.85 -1.00000000e+00 0.00000000e+00 
32 198.65 -1.00000000e+00 0.00000000e+00 
33 199.45 -1.00000000e+00 0.00000000e+00 
34 200.25 -1.00000000e+00 0.00000000e+00 
35 201.05 -1.00000000e+00 0.00000000e+00 
36 201.85 -1.00000000e+00 0.00000000e+00 
37 202.65 -1.00000000e+00 0.00000000e+00 
38 203.44 -1.00000000e+00 0.00000000e+00 
39 204.24 -1.00000000e+00 0.00000000e+00 
40 205.04 -1.00000000e+00 0.00000000e+00 
41 205.84 -1.00000000e+00 0.00000000e+00 
42 206.64 -1.00000000e+00 0.00000000e+00 
43 207.44 -1.00000000e+00 0.00000000e+00 
44 208.24 -1.00000000e+00 0.00000000e+00 
45 209.04 -1.00000000e+00 0.00000000e+00 
46 209.84 -1.00000000e+00 0.00000000e+00 
47 210.64 -1.00000000e+00 -1.00000000e+00 
48 211.44 -1.00000000e+00 -1.00000000e+00 
49 212.24 -1.00000000e+00 -1.00000000e+00 
50 213.04 -1.00000000e+00 -1.00000000e+00 
51 213.85 7.65285173e+34 -1.00000000e+00 
52 214.65 9.59602653e+33 -1.00000000e+00 
53 215.45 1.21578664e+33 -1.00000000e+00 
54 216.25 1.52589224e+32 -1.00000000e+00 
55 217.05 1.92638533e+31 -1.00000000e+00 
56 217.85 2.43769374e+30 -1.00000000e+00 
57 218.65 3.07027094e+29 -1.00000000e+00 
58 219.46 3.90169238e+28 -1.00000000e+00 
59 220.26 4.94646668e+27 -1.00000000e+00 
60 221.06 6.27771035e+26 -1.00000000e+00 
61 221.86 7.98357375e+25 -1.00000000e+00 
62 222.66 1.01670210e+25 -1.00000000e+00 
63 223.47 1.29734510e+24 -1.00000000e+00 
64 224.27 1.66152040e+23 -1.00000000e+00 
65 225.07 2.12457605e+22 -1.00000000e+00 
66 225.87 2.72877070e+21 -1.00000000e+00 
67 226.68 3.53873085e+20 -1.00000000e+00 
68 227.48 4.80544152e+19 -1.00000000e+00 
69 228.28 7.53325664e+18 -1.00000000e+00 
70 229.08 1.65709858e+18 4.41358639e+17 
71 229.89 6.73817834e+17 1.76576053e+17 
72 230.69 6.46062862e+17 1.69971578e+17 
73 231.49 1.55921387e+18 4.15252488e+17 
74 232.30 7.85361474e+18 -1.00000000e+00 
75 233.10 6.16871147e+19 -1.00000000e+00 
76 233.90 5.95851352e+20 -1.00000000e+00 
77 234.71 6.12947228e+21 -1.00000000e+00 
78 235.51 6.62331157e+22 -1.00000000e+00 
79 236.32 7.33606980e+23 -1.00000000e+00 
80 237.12 8.20046318e+24 -1.00000000e+00 
81 237.92 9.24170902e+25 -1.00000000e+00 
82 238.73 1.06288007e+27 -1.00000000e+00 
83 239.53 1.23102555e+28 -1.00000000e+00 
84 240.34 1.37080250e+29 -1.00000000e+00 
85 241.14 1.42711064e+30 -1.00000000e+00 
86 241.94 1.37689712e+31 -1.00000000e+00 
87 242.75 1.22395151e+32 -1.00000000e+00 
88 243.55 9.93272564e+32 -1.00000000e+00 
89 244.36 7.58732026e+33 -1.00000000e+00 
90 245.16 5.17019121e+34 -1.00000000e+00 
91 245.97 3.16919167e+35 -1.00000000e+00 
92 246.77 -1.00000000e+00 -1.00000000e+00 
93 247.58 -1.00000000e+00 -1.00000000e+00 
94 248.38 -1.00000000e+00 -1.00000000e+00 
95 249.19 -1.00000000e+00 -1.00000000e+00 
96 249.99 -1.00000000e+00 -1.00000000e+00 
97 250.80 -1.00000000e+00 -1.00000000e+00 
98 251.60 -1.00000000e+00 0.00000000e+00 
99 252.41 -1.00000000e+00 0.00000000e+00 
100 253.21 -1.00000000e+00 0.00000000e+00 
101 254.02 -1.00000000e+00 0.00000000e+00 
102 254.82 -1.00000000e+00 0.00000000e+00 
103 255.63 -1.00000000e+00 0.00000000e+00 
104 256.44 -1.00000000e+00 0.00000000e+00 
105 257.24 -1.00000000e+00 0.00000000e+00 
106 258.05 -1.00000000e+00 0.00000000e+00 
107 258.85 -1.00000000e+00 -1.00000000e+00 
108 259.66 -1.00000000e+00 -1.00000000e+00 
109 260.46 -1.00000000e+00 -1.00000000e+00 
110 261.27 -1.00000000e+00 -1.00000000e+00 
111 262.08 -1.00000000e+00 -1.00000000e+00 
112 262.88 -1.00000000e+00 -1.00000000e+00 
113 263.69 1.17579347e+35 -1.00000000e+00 
114 264.49 1.89375227e+34 -1.00000000e+00 
115 265.30 2.69063235e+33 -1.00000000e+00 
116 266.11 3.03781104e+32 -1.00000000e+00 
117 266.91 2.94724437e+31 -1.00000000e+00 
118 267.72 2.49039112e+30 -1.00000000e+00 
119 268.53 1.86111901e+29 -1.00000000e+00 
120 269.33 1.46417622e+28 -1.00000000e+00 
121 270.14 1.35116793e+27 -1.00000000e+00 
122 270.95 1.16555088e+26 -1.00000000e+00 
123 271.75 9.09592521e+24 -1.00000000e+00 
124 272.56 6.56461255e+23 -1.00000000e+00 
125 273.37 4.18592832e+22 -1.00000000e+00 
126 274.17 2.61518710e+21 -1.00000000e+00 
127 274.98 1.90418244e+20 -1.00000000e+00 
128 275.79 1.59748264e+19 -1.00000000e+00 
129 276.59 1.44705543e+18 3.86968788e+17 
130 277.40 1.35881315e+17 3.43529480e+16 
131 278.21 1.24260179e+16 2.95499092e+15 
132 279.01 1.22727348e+15 2.73054626e+14 
133 279.82 1.28782833e+14 2.70329541e+13 
134 280.63 1.29799301e+13 2.52888193e+12 
135 281.43 1.43576741e+12 2.59424879e+11 
136 282.24 1.86411041e+11 3.08924170e+10 
137 283.05 2.92263506e+10 4.55505203e+09 
138 283.86 4.96055040e+09 7.13837312e+08 
139 284.66 8.65457600e+08 1.15079544e+08 
140 285.47 1.67442256e+08 2.07251000e+07 
141 286.28 3.90739320e+07 4.53927800e+06 
142 287.09 9.69343700e+06 1.03628419e+06 
143 287.89 2.42328925e+06 2.38109578e+05 
144 288.70 6.82180000e+05 6.11978594e+04 
145 289.51 2.18518391e+05 1.81280508e+04 
146 290.32 7.71280391e+04 5.91163379e+03 
147 291.12 2.86086055e+04 2.03432690e+03 
148 291.93 1.13224639e+04 7.42884338e+02 
149 292.74 4.76489990e+03 2.86360413e+02 
150 293.55 2.22752173e+03 1.22657639e+02 
151 294.35 1.10061890e+03 5.57455406e+01 
152 295.16 5.85027649e+02 2.76540451e+01 
153 295.97 3.24332642e+02 1.41615572e+01 
154 296.78 1.84960114e+02 7.44948721e+00 
155 297.58 1.11289902e+02 4.39556742e+00 
156 298.39 7.12688675e+01 2.60658836e+00 
157 299.20 4.83114357e+01 1.61478615e+00 
158 300.01 3.36820412e+01 1.12475824e+00 
159 300.81 2.44320240e+01 7.79709816e-01 
160 301.62 1.83623009e+01 5.68027079e-01 
161 302.43 1.41358213e+01 4.14562792e-01 
162 303.24 1.13666277e+01 3.18588138e-01 
163 304.04 9.27099895e+00 2.63018578e-01 
164 304.85 7.79209900e+00 2.12124646e-01 
165 305.66 6.53048944e+00 1.71971098e-01 
166 306.47 5.61644745e+00 1.46643326e-01 
167 307.28 4.94643974e+00 1.24863394e-01 
168 308.08 4.41085863e+00 1.08512372e-01 
169 308.89 3.97641182e+00 9.60492641e-02 
170 309.70 3.62000155e+00 8.79925415e-02 
171 310.51 3.28525066e+00 7.72337243e-02 
172 311.32 3.06143522e+00 6.96103871e-02 
173 312.12 2.81397557e+00 6.30235448e-02 
174 312.93 2.64207911e+00 5.86420335e-02 
175 313.74 2.42568827e+00 5.74207157e-02 
176 314.55 2.39700699e+00 5.15896082e-02 
177 315.36 2.30774331e+00 5.40340170e-02 
178 316.16 2.21967173e+00 4.76171896e-02 
179 316.97 2.15498519e+00 4.76349629e-02 
180 317.78 2.11019993e+00 4.45762798e-02 
181 318.59 2.06664038e+00 4.62708101e-02 
182 319.40 2.05294442e+00 4.57804427e-02 
183 320.20 2.01389289e+00 4.48460653e-02 
184 321.01 1.98692322e+00 4.38060239e-02 
185 321.82 1.99873400e+00 4.06091623e-02 
186 322.63 1.99486339e+00 3.96583043e-02 
187 323.43 1.98146033e+00 3.69999297e-02 
188 324.24 1.96933746e+00 3.45559381e-02 
189 325.05 1.98297620e+00 3.57421935e-02 
190 325.86 2.00312209e+00 3.64445671e-02 
191 326.67 2.00044203e+00 3.66564170e-02 
192 327.48 2.02471495e+00 3.79274115e-02 
193 328.28 2.05215359e+00 3.56267765e-02 
194 329.09 2.08752346e+00 3.77441160e-02 
195 329.90 2.11311150e+00 3.81505713e-02 
196 330.71 2.19550657e+00 3.63413952e-02 
197 331.52 2.31498575e+00 3.45008709e-02 
198 332.32 2.47298479e+00 3.59903798e-02 
199 333.13 2.80376673e+00 3.66029292e-02 
200 333.94 3.39968252e+00 3.85462716e-02 
201 334.75 4.34952021e+00 4.51458842e-02 
202 335.55 5.55914688e+00 4.86999638e-02 
203 336.36 7.30621099e+00 5.31473570e-02 
204 337.17 9.98432636e+00 6.12582453e-02 
205 337.98 1.35887575e+01 7.03106225e-02 
206 338.79 1.77844067e+01 8.00710246e-02 
207 339.60 2.23971329e+01 9.03213248e-02 
208 340.40 2.64401207e+01 9.92369354e-02 
209 341.21 2.99351006e+01 1.02624983e-01 
210 342.02 3.41071434e+01 1.05228104e-01 
211 342.83 3.74425201e+01 1.14298180e-01 
212 343.63 3.81369743e+01 1.10347904e-01 
213 344.44 3.99709206e+01 1.05611384e-01 
214 345.25 4.44962044e+01 1.20850898e-01 
215 346.06 4.84089317e+01 1.26804441e-01 
216 346.87 5.09808807e+01 1.30456209e-01 
217 347.67 5.28404274e+01 1.29572108e-01 
218 348.48 5.47992325e+01 1.36254579e-01 
219 349.29 5.84506454e+01 1.44445717e-01 
220 350.10 6.42092285e+01 1.39814526e-01 
221 350.90 6.75082703e+01 1.46275148e-01 
222 351.71 6.75519104e+01 1.52189478e-01 
223 352.52 6.95487289e+01 1.50625795e-01 
224 353.33 7.63335419e+01 1.56266257e-01 
225 354.14 8.36607361e+01 1.63056597e-01 
226 354.94 8.64665833e+01 1.64689526e-01 
227 355.75 8.45066986e+01 1.62551314e-01 
228 356.56 7.96810837e+01 1.62919953e-01 
229 357.37 7.52701645e+01 1.45451769e-01 
230 358.18 7.54975281e+01 1.50276855e-01 
231 358.98 8.61099930e+01 1.66263938e-01 
232 359.79 9.79742050e+01 1.71276271e-01 
233 360.60 9.84339752e+01 1.72292978e-01 
234 361.41 9.79043655e+01 1.73273385e-01 
235 362.21 1.03944550e+02 1.80175483e-01 
236 363.02 1.09814507e+02 1.92607433e-01 
237 363.83 1.13406685e+02 1.88686654e-01 
238 364.64 1.19673325e+02 2.00887784e-01 
239 365.44 1.30947952e+02 1.99995771e-01 
240 366.25 1.39334076e+02 2.07948834e-01 
241 367.06 1.39796188e+02 2.06293702e-01 
242 367.87 1.37909241e+02 2.14456052e-01 
243 368.67 1.40995041e+02 2.24612206e-01 
244 369.48 1.47123169e+02 2.21550360e-01 
245 370.29 1.47770126e+02 2.12397531e-01 
246 371.10 1.46219254e+02 2.07281262e-01 
247 371.90 1.42200439e+02 2.16297343e-01 
248 372.71 1.34109833e+02 2.01707736e-01 
249 373.52 1.27455620e+02 1.95724592e-01 
250 374.33 1.28340286e+02 1.95444673e-01 
251 375.13 1.38331299e+02 2.08156988e-01 
252 375.94 1.50531281e+02 2.12502837e-01 
253 376.75 1.64117432e+02 2.24740326e-01 
254 377.56 1.79220627e+02 2.26643354e-01 
255 378.36 1.81006378e+02 2.28338495e-01 
256 379.17 1.71272827e+02 2.24954486e-01 
257 379.98 1.69376740e+02 2.22363964e-01 
258 380.78 1.68483459e+02 2.22661406e-01 
259 381.59 1.51618896e+02 2.11552233e-01 
260 382.40 1.29350037e+02 1.82438552e-01 
261 383.20 1.21823967e+02 1.78492412e-01 
262 384.01 1.34891998e+02 1.98354945e-01 
263 384.82 1.51699677e+02 2.06189036e-01 
264 385.63 1.57469009e+02 2.21663028e-01 
265 386.43 1.58991882e+02 2.19530910e-01 
266 387.24 1.60306610e+02 2.16737583e-01 
267 388.05 1.63542847e+02 2.07358062e-01 
268 388.85 1.75042786e+02 2.31033310e-01 
269 389.66 1.91699493e+02 2.26076573e-01 
270 390.47 2.04070602e+02 2.36961007e-01 
271 391.27 2.03492981e+02 2.41649449e-01 
272 392.08 1.78531937e+02 2.18528330e-01 
273 392.89 1.44991699e+02 1.97947428e-01 
274 393.69 1.43481461e+02 1.97244808e-01 
275 394.50 1.74485199e+02 2.23937958e-01 
276 395.31 1.90641830e+02 2.39627391e-01 
277 396.11 1.74287491e+02 2.17552766e-01 
278 396.92 1.69296783e+02 2.20924437e-01 
279 397.73 2.05853439e+02 2.46755943e-01 
280 398.53 2.51711090e+02 2.65370846e-01 
281 399.34 2.78266449e+02 2.84699351e-01 
282 400.15 2.91485718e+02 2.91789889e-01 
283 400.95 3.01675690e+02 3.17831129e-01 
284 401.76 3.09419983e+02 3.14073741e-01 
285 402.57 3.11073151e+02 2.99620152e-01 
286 403.37 3.09321503e+02 3.06036681e-01 
287 404.18 3.08289246e+02 3.12451333e-01 
288 404.99 3.07078217e+02 3.04227889e-01 
289 405.79 3.05716461e+02 2.98026979e-01 
290 406.60 3.07362396e+02 2.98265487e-01 
291 407.40 3.16168884e+02 3.05236071e-01 
292 408.21 3.28334229e+02 3.13323468e-01 
293 409.02 3.31440796e+02 3.12541723e-01 
294 409.82 3.27068115e+02 2.89579958e-01 
295 410.63 3.33474854e+02 3.04846495e-01 
296 411.43 3.48905182e+02 3.24193209e-01 
297 412.24 3.57102600e+02 3.28168362e-01 
298 413.05 3.57747406e+02 3.26509029e-01 
299 413.85 3.58072388e+02 3.17020327e-01 
300 414.66 3.59024323e+02 3.26830626e-01 
301 415.46 3.60935059e+02 3.29546452e-01 
302 416.27 3.61216095e+02 3.18061054e-01 
303 417.08 3.56160461e+02 3.25222433e-01 
304 417.88 3.50601624e+02 3.30833197e-01 
305 418.69 3.48921082e+02 3.16957563e-01 
306 419.49 3.50411682e+02 3.28192174e-01 
307 420.30 3.55653839e+02 3.26735318e-01 
308 421.11 3.59286591e+02 3.24125320e-01 
309 421.91 3.54925934e+02 3.13342750e-01 
310 422.72 3.48857574e+02 3.25383902e-01 
311 423.52 3.49459137e+02 3.10112476e-01 
312 424.33 3.53031403e+02 3.14507157e-01 
313 425.13 3.54602417e+02 3.21737885e-01 
314 425.94 3.53959442e+02 3.27151328e-01 
315 426.74 3.52431915e+02 3.17872882e-01 
316 427.55 3.50756256e+02 3.13011944e-01 
317 428.36 3.44645111e+02 3.25686932e-01 
318 429.16 3.28390778e+02 3.18971395e-01 
319 429.96 3.13603943e+02 2.97249347e-01 
320 430.77 3.24834290e+02 3.19956303e-01 
321 431.58 3.60344482e+02 3.31878006e-01 
322 432.38 3.91902008e+02 3.48031819e-01 
323 433.19 4.04644684e+02 3.46041054e-01 
324 433.99 4.12192749e+02 3.63205582e-01 
325 434.80 4.29059845e+02 3.75120670e-01 
326 435.60 4.51384399e+02 3.61554086e-01 
327 436.41 4.64070740e+02 3.74069184e-01 
328 437.21 4.61009125e+02 3.69405299e-01 
329 438.02 4.53990051e+02 3.62930983e-01 
330 438.82 4.57383881e+02 3.70349169e-01 
331 439.63 4.71392365e+02 4.03618932e-01 
332 440.43 4.90703888e+02 4.10177469e-01 
333 441.24 5.10681824e+02 3.95306140e-01 
334 442.04 5.28054565e+02 4.06874806e-01 
335 442.85 5.39337769e+02 4.03966546e-01 
336 443.65 5.45746155e+02 4.35903579e-01 
337 444.45 5.47709412e+02 4.22661036e-01 
338 445.26 5.46812378e+02 4.09096897e-01 
339 446.06 5.52026001e+02 4.22018647e-01 
340 446.87 5.65750916e+02 4.37260360e-01 
341 447.67 5.81411621e+02 4.53397423e-01 
342 448.48 5.93192200e+02 4.71004099e-01 
343 449.28 6.05323853e+02 4.91215318e-01 
344 450.09 6.18756348e+02 4.68495905e-01 
345 450.89 6.25151794e+02 4.67991740e-01 
346 451.70 6.17920105e+02 4.93882537e-01 
347 452.50 6.05951355e+02 4.50102657e-01 
348 453.30 6.01951843e+02 4.43156481e-01 
349 454.11 6.06858704e+02 4.72576737e-01 
350 454.91 6.16863525e+02 4.53967422e-01 
351 455.72 6.27423767e+02 4.78305280e-01 
352 456.52 6.35848938e+02 4.84648287e-01 
353 457.32 6.38942505e+02 4.58211839e-01 
354 458.13 6.37539795e+02 4.56118703e-01 
355 458.93 6.37290649e+02 4.65768576e-01 
356 459.74 6.42483154e+02 4.62175488e-01 
357 460.54 6.51722168e+02 4.95985717e-01 
358 461.34 6.61086670e+02 4.85366851e-01 
359 462.15 6.66629272e+02 5.01754284e-01 
360 462.95 6.66000305e+02 4.95837867e-01 
361 463.76 6.61221558e+02 4.84655321e-01 
362 464.56 6.57112183e+02 4.83841121e-01 
363 465.36 6.54312805e+02 4.65863943e-01 
364 466.17 6.52994507e+02 4.72309679e-01 
365 466.97 6.54407410e+02 4.97081578e-01 
366 467.77 6.58510132e+02 4.65881377e-01 
367 468.58 6.62287781e+02 4.72418010e-01 
368 469.38 6.62455750e+02 4.62407380e-01 
369 470.18 6.63705750e+02 4.49256808e-01 
370 470.99 6.71626282e+02 4.72863257e-01 
371 471.79 6.82038269e+02 4.52595145e-01 
372 472.59 6.90342163e+02 4.82592940e-01 
373 473.40 6.96199524e+02 4.80623633e-01 
374 474.20 7.00310120e+02 4.92274731e-01 
375 475.00 7.02758850e+02 4.94756818e-01 
376 475.81 7.04857239e+02 4.99013513e-01 
377 476.61 7.09830933e+02 4.90735024e-01 
378 477.41 7.17530090e+02 5.32497227e-01 
379 478.21 7.24522949e+02 5.14354408e-01 
380 479.02 7.29085449e+02 5.18446624e-01 
381 479.82 7.32094788e+02 5.26116371e-01 
382 480.62 7.35497803e+02 4.99527246e-01 
383 481.43 7.36808838e+02 4.95368451e-01 
384 482.23 7.34701111e+02 4.99571919e-01 
385 483.03 7.28432129e+02 4.79761839e-01 
386 483.84 7.15534424e+02 4.86332864e-01 
387 484.64 6.90743713e+02 4.96463776e-01 
388 485.44 6.62231323e+02 4.88563985e-01 
389 486.24 6.48649719e+02 4.84133244e-01 
390 487.04 6.55556030e+02 4.70606714e-01 
391 487.85 6.75862244e+02 4.67921615e-01 
392 488.65 6.97595947e+02 5.06946325e-01 
393 489.45 7.11732849e+02 4.97584224e-01 
394 490.26 7.15404114e+02 4.72145230e-01 
395 491.06 7.11314392e+02 4.84364212e-01 
396 491.86 7.06207520e+02 4.92245883e-01 
397 492.66 7.06855347e+02 4.90076959e-01 
398 493.46 7.14555115e+02 4.92921740e-01 
399 494.27 7.22427795e+02 4.89004910e-01 
400 495.07 7.26342590e+02 5.12444854e-01 
401 495.87 7.27817200e+02 5.02918065e-01 
402 496.67 7.24484863e+02 4.90676254e-01 
403 497.48 7.18849548e+02 5.13021469e-01 
404 498.28 7.13556396e+02 5.00908792e-01 
405 499.08 7.06807068e+02 4.88937497e-01 
406 499.88 6.99033142e+02 4.85028923e-01 
407 500.68 6.92505127e+02 4.79887038e-01 
408 501.48 6.90189514e+02 4.84251380e-01 
409 502.29 6.93042419e+02 4.64255422e-01 
410 503.09 6.97726013e+02 5.05574524e-01 
411 503.89 7.04027527e+02 5.02116680e-01 
412 504.69 7.11821289e+02 5.14324188e-01 
413 505.49 7.17555664e+02 4.86715108e-01 
414 506.29 7.17834045e+02 4.94349629e-01 
415 507.09 7.13608948e+02 5.01931310e-01 
416 507.90 7.09972961e+02 4.80386645e-01 
417 508.70 7.09222717e+02 4.58890021e-01 
418 509.50 7.10592468e+02 4.58789170e-01 
419 510.30 7.12463074e+02 4.74495769e-01 
420 511.10 7.11227783e+02 4.62695241e-01 
421 511.90 7.06127869e+02 4.71024483e-01 
422 512.71 6.98132996e+02 4.49598938e-01 
423 513.51 6.89969299e+02 4.73375410e-01 
424 514.31 6.83791016e+02 4.29324239e-01 
425 515.11 6.72867554e+02 4.28543240e-01 
426 515.91 6.54425659e+02 4.16973859e-01 
427 516.71 6.37106628e+02 4.09437090e-01 
428 517.51 6.28863953e+02 4.16059077e-01 
429 518.31 6.35578857e+02 4.44954872e-01 
430 519.11 6.52241760e+02 4.56587791e-01 
431 519.91 6.68087585e+02 4.75515842e-01 
432 520.71 6.79328613e+02 4.75528836e-01 
433 521.52 6.83489197e+02 4.96839106e-01 
434 522.32 6.86198914e+02 4.82070982e-01 
435 523.12 6.91715698e+02 4.92167503e-01 
436 523.92 6.96719421e+02 4.92681175e-01 
437 524.72 6.95468140e+02 4.96106893e-01 
438 525.52 6.84024048e+02 4.80781525e-01 
439 526.32 6.71944031e+02 4.69737232e-01 
440 527.12 6.71552124e+02 4.68553573e-01 
441 527.92 6.82571106e+02 4.87456501e-01 
442 528.72 6.98265930e+02 4.82763737e-01 
443 529.52 7.10861267e+02 4.79071259e-01 
444 530.32 7.16009216e+02 4.75630283e-01 
445 531.12 7.12691528e+02 4.81890023e-01 
446 531.92 7.05645203e+02 4.63463962e-01 
447 532.72 6.99962708e+02 4.56060708e-01 
448 533.52 7.00343262e+02 4.71451938e-01 
449 534.32 7.06774170e+02 4.83092755e-01 
450 535.12 7.11929138e+02 4.99386072e-01 
451 535.92 7.11951660e+02 5.06242692e-01 
452 536.72 7.09819153e+02 4.78083223e-01 
453 537.52 7.06582764e+02 4.79074627e-01 
454 538.32 7.01863342e+02 4.94721472e-01 
455 539.12 6.95564209e+02 4.88683403e-01 
456 539.92 6.90343628e+02 4.81339991e-01 
457 540.72 6.89496216e+02 4.85538781e-01 
458 541.52 6.92616760e+02 4.65019882e-01 
459 542.32 6.98388977e+02 4.63754863e-01 
460 543.12 7.03853638e+02 4.43640560e-01 
461 543.92 7.07632874e+02 4.55286443e-01 
462 544.72 7.10027649e+02 4.62101161e-01 
463 545.52 7.09548889e+02 4.60771829e-01 
464 546.32 7.05876465e+02 4.42643285e-01 
465 547.12 7.01712524e+02 4.70649123e-01 
466 547.91 6.99526489e+02 4.74854589e-01 
