% C0 (TOA Count Rate, /ms) for 4STAR VIS spectrometer (1044 channels) derived from (SEE Original files for sources) and recorded on 2017-08-24 15:56:20.
% Langley at MLO and airborne Data outside 2.0x the STD of 501 nm Langley residuals were screened out. 
% Including high Altitude rate spectra, matched to splined stratospheric AOD measured at MLO.
% Averages of c0 from multiple days including: , MLO -av-g-, WFF--20-17, infl-ig-ht, high- a-lt. See the list of files below
% 20170605_VIS_C0_refined_Langley_MLO_May2017_averages.dat
% 20170801_VIS_C0_refined_langley_4STAR_WFF_ground.dat
% 20170807_VIS_C0_refined_langley_4STARpm.dat
% 20170809_VIS_C0_refined_high_alt_low_m_frompolyfit.dat
Pix Wavelength C0 C0err
0 173.18 -7.50000000e-01 5.00000000e-01 
1 173.98 -1.00000000e+00 0.00000000e+00 
2 174.77 -1.00000000e+00 0.00000000e+00 
3 175.56 -1.00000000e+00 0.00000000e+00 
4 176.36 -1.00000000e+00 0.00000000e+00 
5 177.15 -1.00000000e+00 0.00000000e+00 
6 177.94 -1.00000000e+00 0.00000000e+00 
7 178.74 -1.00000000e+00 0.00000000e+00 
8 179.53 -1.00000000e+00 0.00000000e+00 
9 180.33 -1.00000000e+00 0.00000000e+00 
10 181.12 -1.00000000e+00 0.00000000e+00 
11 181.92 -1.00000000e+00 0.00000000e+00 
12 182.71 -1.00000000e+00 0.00000000e+00 
13 183.51 -1.00000000e+00 0.00000000e+00 
14 184.30 -1.00000000e+00 0.00000000e+00 
15 185.10 -1.00000000e+00 0.00000000e+00 
16 185.89 -1.00000000e+00 0.00000000e+00 
17 186.69 -1.00000000e+00 0.00000000e+00 
18 187.49 -1.00000000e+00 0.00000000e+00 
19 188.28 -1.00000000e+00 0.00000000e+00 
20 189.08 -1.00000000e+00 0.00000000e+00 
21 189.88 -1.00000000e+00 0.00000000e+00 
22 190.67 -1.00000000e+00 0.00000000e+00 
23 191.47 -1.00000000e+00 0.00000000e+00 
24 192.27 -1.00000000e+00 0.00000000e+00 
25 193.07 -1.00000000e+00 0.00000000e+00 
26 193.86 -1.00000000e+00 0.00000000e+00 
27 194.66 -1.00000000e+00 0.00000000e+00 
28 195.46 -1.00000000e+00 0.00000000e+00 
29 196.26 -1.00000000e+00 0.00000000e+00 
30 197.05 -1.00000000e+00 0.00000000e+00 
31 197.85 -1.00000000e+00 0.00000000e+00 
32 198.65 -1.00000000e+00 0.00000000e+00 
33 199.45 -1.00000000e+00 0.00000000e+00 
34 200.25 -1.00000000e+00 0.00000000e+00 
35 201.05 -1.00000000e+00 0.00000000e+00 
36 201.85 -1.00000000e+00 0.00000000e+00 
37 202.65 -1.00000000e+00 0.00000000e+00 
38 203.44 -1.00000000e+00 0.00000000e+00 
39 204.24 -1.00000000e+00 0.00000000e+00 
40 205.04 -1.00000000e+00 0.00000000e+00 
41 205.84 -1.00000000e+00 0.00000000e+00 
42 206.64 7.57037895e+37 1.51407579e+38 
43 207.44 6.99248553e-01 3.39849711e+00 
44 208.24 -2.59239016e-01 1.34498634e+00 
45 209.04 -3.78503120e-01 1.10312924e+00 
46 209.84 -2.66252897e-01 1.26484079e+00 
47 210.64 -1.28410660e-01 1.18327511e+00 
48 211.44 -1.37647990e-01 1.21224124e+00 
49 212.24 -1.99917018e-01 1.19720046e+00 
50 213.04 9.97970804e-01 2.90391502e+00 
51 213.85 2.23168855e+00 5.83100493e+00 
52 214.65 3.37108461e+00 8.08044689e+00 
53 215.45 8.90346483e+34 1.78069297e+35 
54 216.25 9.47103110e+33 1.89420622e+34 
55 217.05 1.01405789e+33 2.02811578e+33 
56 217.85 1.09242899e+32 2.18485798e+32 
57 218.65 1.17239184e+31 2.34478368e+31 
58 219.46 1.25702603e+30 2.51405206e+30 
59 220.26 1.35801386e+29 2.71602772e+29 
60 221.06 1.45701109e+28 2.91402218e+28 
61 221.86 1.59753910e+27 3.19507820e+27 
62 222.66 1.73154846e+26 3.46309691e+26 
63 223.47 1.88571691e+25 3.77143383e+25 
64 224.27 2.04209276e+24 4.08418552e+24 
65 225.07 2.21949423e+23 4.43898847e+23 
66 225.87 2.44467503e+22 4.88935005e+22 
67 226.68 2.72706890e+21 5.45413780e+21 
68 227.48 3.18287753e+20 6.36575505e+20 
69 228.28 4.34097262e+19 8.68194525e+19 
70 229.08 8.45585355e+18 1.69117071e+19 
71 229.89 3.21689643e+18 6.43379285e+18 
72 230.69 3.07438570e+18 6.14877140e+18 
73 231.49 7.96017062e+18 1.59203412e+19 
74 232.30 4.52138050e+19 9.04276100e+19 
75 233.10 4.20333128e+20 8.40666255e+20 
76 233.90 4.79863383e+21 9.59726765e+21 
77 234.71 6.01749500e+22 1.20349900e+23 
78 235.51 7.79035690e+23 1.55807138e+24 
79 236.32 1.04356586e+25 2.08713172e+25 
80 237.12 1.41238123e+26 2.82476247e+26 
81 237.92 1.93836026e+27 3.87672051e+27 
82 238.73 2.70648930e+28 5.41297860e+28 
83 239.53 3.79909473e+29 7.59818945e+29 
84 240.34 5.10774423e+30 1.02154885e+31 
85 241.14 6.42857428e+31 1.28571486e+32 
86 241.94 7.46680170e+32 1.49336034e+33 
87 242.75 7.92576377e+33 1.58515276e+34 
88 243.55 7.69406573e+34 1.53881315e+35 
89 244.36 1.82600773e+00 5.04890748e+00 
90 245.16 1.32489666e+00 3.98962892e+00 
91 245.97 5.28509317e-01 2.45802753e+00 
92 246.77 -2.22201310e-01 1.16401036e+00 
93 247.58 -2.78422888e-01 1.08767954e+00 
94 248.38 -1.86904472e-01 1.08227633e+00 
95 249.19 -2.09802148e-01 1.18236529e+00 
96 249.99 -2.42190247e-01 1.10747452e+00 
97 250.80 -3.00068223e-01 1.00155655e+00 
98 251.60 2.24963286e+11 4.49926573e+11 
99 252.41 -3.09810716e-01 1.23153137e+00 
100 253.21 -3.30194623e-01 1.14013542e+00 
101 254.02 -1.99105928e-01 1.36262962e+00 
102 254.82 -2.70041115e-01 1.30943682e+00 
103 255.63 -3.85715449e-01 1.03268128e+00 
104 256.44 -3.94140238e-01 1.01920603e+00 
105 257.24 -2.98393854e-01 1.16739793e+00 
106 258.05 1.53010282e+06 3.06020618e+06 
107 258.85 1.22460364e-01 1.31959453e+00 
108 259.66 -3.08110756e-01 1.06767576e+00 
109 260.46 -2.37577225e-01 1.11449739e+00 
110 261.27 -2.08065386e-01 1.15323905e+00 
111 262.08 -2.60988897e-01 1.06618615e+00 
112 262.88 4.20245425e-03 1.51606273e+00 
113 263.69 9.22700633e-01 3.22864274e+00 
114 264.49 1.21966220e+00 3.80154731e+00 
115 265.30 1.50412003e+00 4.37742913e+00 
116 266.11 2.17887301e+34 4.35774602e+34 
117 266.91 1.75700830e+33 3.51401660e+33 
118 267.72 1.22629538e+32 2.45259075e+32 
119 268.53 7.28186858e+30 1.45637371e+31 
120 269.33 4.73560535e+29 9.47121070e+29 
121 270.14 3.63529330e+28 7.27058660e+28 
122 270.95 2.56601973e+27 5.13203945e+27 
123 271.75 1.64616383e+26 3.29232766e+26 
124 272.56 9.72559848e+24 1.94511970e+25 
125 273.37 4.92251618e+23 9.84503235e+23 
126 274.17 2.50838340e+22 5.01676680e+22 
127 274.98 1.51579412e+21 3.03158824e+21 
128 275.79 1.04090819e+20 2.08181637e+20 
129 276.59 7.76641082e+18 1.55328216e+19 
130 277.40 6.11362893e+17 1.22272579e+18 
131 278.21 4.66921700e+16 9.33843400e+16 
132 279.01 3.86026668e+15 7.72053335e+15 
133 279.82 3.42607965e+14 6.85215930e+14 
134 280.63 2.93089008e+13 5.86178015e+13 
135 281.43 2.71458003e+12 5.42916005e+12 
136 282.24 3.09543765e+11 6.19087530e+11 
137 283.05 4.20179026e+10 8.40358049e+10 
138 283.86 6.24327282e+09 1.24865453e+10 
139 284.66 9.43574733e+08 1.88714926e+09 
140 285.47 1.64888035e+08 3.29775934e+08 
141 286.28 3.47387222e+07 6.94767452e+07 
142 287.09 7.78958704e+06 1.55782980e+07 
143 287.89 1.75463686e+06 3.50817551e+06 
144 288.70 4.49363341e+05 8.97167193e+05 
145 289.51 1.34029423e+05 2.65235252e+05 
146 290.32 4.44952645e+04 8.67974797e+04 
147 291.12 1.56346870e+04 3.03028531e+04 
148 291.93 5.75621590e+03 1.09762439e+04 
149 292.74 2.34026218e+03 4.38847809e+03 
150 293.55 1.04212144e+03 1.91806200e+03 
151 294.35 4.97033964e+02 8.98816539e+02 
152 295.16 2.53148856e+02 4.47076551e+02 
153 295.97 1.37582636e+02 2.36274114e+02 
154 296.78 7.89742831e+01 1.31893165e+02 
155 297.58 4.69124532e+01 7.57457066e+01 
156 298.39 2.98002977e+01 4.63551124e+01 
157 299.20 2.00481750e+01 2.99927291e+01 
158 300.01 1.40430712e+01 2.02946571e+01 
159 300.81 1.03228214e+01 1.42382881e+01 
160 301.62 7.88817921e+00 1.03553274e+01 
161 302.43 6.13683482e+00 7.68526137e+00 
162 303.24 5.00982018e+00 5.92069732e+00 
163 304.04 4.26828129e+00 4.69530974e+00 
164 304.85 3.61966615e+00 3.78377605e+00 
165 305.66 3.11522953e+00 3.10433307e+00 
166 306.47 2.75914474e+00 2.58624479e+00 
167 307.28 2.45665490e+00 2.21733163e+00 
168 308.08 2.23878354e+00 1.90797574e+00 
169 308.89 2.04105560e+00 1.66160586e+00 
170 309.70 1.87935980e+00 1.45156257e+00 
171 310.51 1.77103403e+00 1.29075337e+00 
172 311.32 1.67399050e+00 1.15475848e+00 
173 312.12 1.56664343e+00 1.04468660e+00 
174 312.93 1.49502825e+00 9.43956344e-01 
175 313.74 1.53315116e+00 8.51294839e-01 
176 314.55 1.40506269e+00 8.13536661e-01 
177 315.36 1.35575575e+00 7.71236634e-01 
178 316.16 1.33532004e+00 7.27673511e-01 
179 316.97 1.31161360e+00 6.97978225e-01 
180 317.78 1.28672489e+00 6.73952648e-01 
181 318.59 1.28849107e+00 6.45985309e-01 
182 319.40 1.25653937e+00 6.36944672e-01 
183 320.20 1.28396329e+00 6.10344642e-01 
184 321.01 1.26900959e+00 6.00529675e-01 
185 321.82 1.27324022e+00 5.90264300e-01 
186 322.63 1.26916284e+00 5.91269368e-01 
187 323.43 1.27557295e+00 5.81218634e-01 
188 324.24 1.29130179e+00 5.67598385e-01 
189 325.05 1.30066500e+00 5.71315879e-01 
190 325.86 1.32592241e+00 5.52709299e-01 
191 326.67 1.31051049e+00 5.79084367e-01 
192 327.48 1.34054088e+00 5.75464725e-01 
193 328.28 1.36925093e+00 5.76818436e-01 
194 329.09 1.38588623e+00 5.89153257e-01 
195 329.90 1.43146284e+00 5.96738096e-01 
196 330.71 1.48669580e+00 5.98643035e-01 
197 331.52 1.55540841e+00 6.32744664e-01 
198 332.32 1.68968703e+00 6.69989636e-01 
199 333.13 1.87724976e+00 8.23674817e-01 
200 333.94 2.27412868e+00 1.04969966e+00 
201 334.75 2.90150565e+00 1.42848977e+00 
202 335.55 3.76245872e+00 1.96670265e+00 
203 336.36 5.02183118e+00 2.66485394e+00 
204 337.17 7.02959385e+00 3.70522845e+00 
205 337.98 9.75534129e+00 5.31030238e+00 
206 338.79 1.30845873e+01 7.14958367e+00 
207 339.60 1.69016998e+01 9.11607925e+00 
208 340.40 2.02489165e+01 1.11836992e+01 
209 341.21 2.32496202e+01 1.25303133e+01 
210 342.02 2.67113416e+01 1.41953299e+01 
211 342.83 2.97914591e+01 1.58233860e+01 
212 343.63 3.10459319e+01 1.55158664e+01 
213 344.44 3.20960973e+01 1.63341675e+01 
214 345.25 3.59363114e+01 1.77120689e+01 
215 346.06 3.95440981e+01 1.92095225e+01 
216 346.87 4.18400951e+01 2.03898816e+01 
217 347.67 4.36938399e+01 2.07889451e+01 
218 348.48 4.56166430e+01 2.08973922e+01 
219 349.29 4.84963255e+01 2.19975838e+01 
220 350.10 5.35773473e+01 2.35986464e+01 
221 350.90 5.71804765e+01 2.45525737e+01 
222 351.71 5.78236650e+01 2.39021730e+01 
223 352.52 5.92722797e+01 2.38121126e+01 
224 353.33 6.51088867e+01 2.48128319e+01 
225 354.14 7.17628317e+01 2.74033098e+01 
226 354.94 7.57275690e+01 2.68539361e+01 
227 355.75 7.42561388e+01 2.70225368e+01 
228 356.56 7.04760456e+01 2.46881577e+01 
229 357.37 6.59946710e+01 2.38764979e+01 
230 358.18 6.52902846e+01 2.32742579e+01 
231 358.98 7.37079576e+01 2.50401360e+01 
232 359.79 8.58227333e+01 2.74587039e+01 
233 360.60 8.78894343e+01 2.73938692e+01 
234 361.41 8.69219155e+01 2.64778501e+01 
235 362.21 9.22711046e+01 2.65557258e+01 
236 363.02 9.88330310e+01 2.60894741e+01 
237 363.83 1.03029383e+02 2.53884313e+01 
238 364.64 1.07363441e+02 2.79256321e+01 
239 365.44 1.18452112e+02 2.75069544e+01 
240 366.25 1.27494716e+02 2.85962745e+01 
241 367.06 1.29413419e+02 2.75005368e+01 
242 367.87 1.27838708e+02 2.61892698e+01 
243 368.67 1.30189148e+02 2.53057088e+01 
244 369.48 1.35685501e+02 2.66863815e+01 
245 370.29 1.38154158e+02 2.46606892e+01 
246 371.10 1.36167902e+02 2.52552289e+01 
247 371.90 1.33956361e+02 2.23224841e+01 
248 372.71 1.26459939e+02 2.13251074e+01 
249 373.52 1.19798501e+02 1.94437608e+01 
250 374.33 1.18798534e+02 1.97522359e+01 
251 375.13 1.27265097e+02 2.05544066e+01 
252 375.94 1.39530135e+02 2.06247211e+01 
253 376.75 1.52752907e+02 2.04518851e+01 
254 377.56 1.67860715e+02 2.11114335e+01 
255 378.36 1.72586576e+02 2.05911032e+01 
256 379.17 1.64249499e+02 1.88266953e+01 
257 379.98 1.60723379e+02 1.79088325e+01 
258 380.78 1.60745353e+02 1.76148909e+01 
259 381.59 1.46588147e+02 1.68732814e+01 
260 382.40 1.24585661e+02 1.51550420e+01 
261 383.20 1.14155386e+02 1.43034185e+01 
262 384.01 1.23797184e+02 1.50828787e+01 
263 384.82 1.41148358e+02 1.51404931e+01 
264 385.63 1.48582171e+02 1.50438859e+01 
265 386.43 1.49997214e+02 1.50178468e+01 
266 387.24 1.50726378e+02 1.57264366e+01 
267 388.05 1.53232421e+02 1.57843443e+01 
268 388.85 1.63504244e+02 1.50003925e+01 
269 389.66 1.78586477e+02 1.66652386e+01 
270 390.47 1.91689527e+02 1.66123988e+01 
271 391.27 1.92992239e+02 1.67208792e+01 
272 392.08 1.72995737e+02 1.46069944e+01 
273 392.89 1.39780462e+02 1.32564181e+01 
274 393.69 1.30641066e+02 1.43267975e+01 
275 394.50 1.57129039e+02 1.48405775e+01 
276 395.31 1.77672473e+02 1.45475503e+01 
277 396.11 1.65357584e+02 1.48588463e+01 
278 396.92 1.55483986e+02 1.55533082e+01 
279 397.73 1.83615375e+02 1.74532472e+01 
280 398.53 2.28077003e+02 1.96343959e+01 
281 399.34 2.56610012e+02 2.14469108e+01 
282 400.15 2.70468629e+02 2.25302987e+01 
283 400.95 2.80427100e+02 2.30031265e+01 
284 401.76 2.88143786e+02 2.34460290e+01 
285 402.57 2.90625719e+02 2.35391228e+01 
286 403.37 2.89248633e+02 2.32455266e+01 
287 404.18 2.87596442e+02 2.33192389e+01 
288 404.99 2.86372824e+02 2.31261419e+01 
289 405.79 2.85779320e+02 2.23418543e+01 
290 406.60 2.86565847e+02 2.25496331e+01 
291 407.40 2.93578209e+02 2.31338171e+01 
292 408.21 3.04849817e+02 2.35928230e+01 
293 409.02 3.09793110e+02 2.33574554e+01 
294 409.82 3.05873912e+02 2.36646017e+01 
295 410.63 3.09063926e+02 2.41544096e+01 
296 411.43 3.22540435e+02 2.45150559e+01 
297 412.24 3.31208210e+02 2.53355193e+01 
298 413.05 3.31899562e+02 2.58662660e+01 
299 413.85 3.31135127e+02 2.62083625e+01 
300 414.66 3.31317882e+02 2.65467486e+01 
301 415.46 3.31921343e+02 2.71551875e+01 
302 416.27 3.31905730e+02 2.72548450e+01 
303 417.08 3.27021084e+02 2.75854243e+01 
304 417.88 3.20754169e+02 2.78162046e+01 
305 418.69 3.17538198e+02 2.81536142e+01 
306 419.49 3.17528892e+02 2.90503217e+01 
307 420.30 3.20988794e+02 3.00650443e+01 
308 421.11 3.24424561e+02 3.05046767e+01 
309 421.91 3.21536891e+02 3.07618858e+01 
310 422.72 3.15560092e+02 3.10163877e+01 
311 423.52 3.15056292e+02 3.09818600e+01 
312 424.33 3.18558230e+02 3.10758236e+01 
313 425.13 3.20762783e+02 3.11729515e+01 
314 425.94 3.21259613e+02 3.06732883e+01 
315 426.74 3.21031790e+02 3.01296037e+01 
316 427.55 3.20950737e+02 2.93792903e+01 
317 428.36 3.17692259e+02 2.77923908e+01 
318 429.16 3.05938026e+02 2.56988642e+01 
319 429.96 2.92514023e+02 2.45609625e+01 
320 430.77 2.99874803e+02 2.46191098e+01 
321 431.58 3.32736097e+02 2.45907207e+01 
322 432.38 3.67119437e+02 2.48824829e+01 
323 433.19 3.84438188e+02 2.50249598e+01 
324 433.99 3.93587274e+02 2.48120568e+01 
325 434.80 4.10394493e+02 2.44425290e+01 
326 435.60 4.33981180e+02 2.36771146e+01 
327 436.41 4.50808094e+02 2.26637849e+01 
328 437.21 4.52548901e+02 2.14512409e+01 
329 438.02 4.47670349e+02 2.05611848e+01 
330 438.82 4.50469063e+02 1.95617563e+01 
331 439.63 4.65054245e+02 1.85116305e+01 
332 440.43 4.85554197e+02 1.83083811e+01 
333 441.24 5.07214755e+02 1.81700069e+01 
334 442.04 5.26846375e+02 1.76798839e+01 
335 442.85 5.40637784e+02 1.75668344e+01 
336 443.65 5.48898938e+02 1.72918502e+01 
337 444.45 5.52690140e+02 1.65528642e+01 
338 445.26 5.52975848e+02 1.61925752e+01 
339 446.06 5.57598551e+02 1.62304405e+01 
340 446.87 5.71080582e+02 1.59486990e+01 
341 447.67 5.88366119e+02 1.56559963e+01 
342 448.48 6.01864734e+02 1.59263536e+01 
343 449.28 6.14254077e+02 1.61472670e+01 
344 450.09 6.28330287e+02 1.59781927e+01 
345 450.89 6.36954984e+02 1.54327915e+01 
346 451.70 6.32101690e+02 1.51160159e+01 
347 452.50 6.20024478e+02 1.50584751e+01 
348 453.30 6.14199270e+02 1.49067737e+01 
349 454.11 6.17878319e+02 1.43831428e+01 
350 454.91 6.28168287e+02 1.46499924e+01 
351 455.72 6.39106013e+02 1.48501929e+01 
352 456.52 6.48514692e+02 1.46623280e+01 
353 457.32 6.52834498e+02 1.43605885e+01 
354 458.13 6.51935158e+02 1.43170299e+01 
355 458.93 6.51043935e+02 1.43916561e+01 
356 459.74 6.55324826e+02 1.46425561e+01 
357 460.54 6.64219925e+02 1.48942144e+01 
358 461.34 6.74038668e+02 1.50908516e+01 
359 462.15 6.80486664e+02 1.51522891e+01 
360 462.95 6.81026749e+02 1.51555496e+01 
361 463.76 6.76873716e+02 1.50774797e+01 
362 464.56 6.72538869e+02 1.51790741e+01 
363 465.36 6.69669085e+02 1.50319961e+01 
364 466.17 6.68195678e+02 1.48622279e+01 
365 466.97 6.68911171e+02 1.49974958e+01 
366 467.77 6.72308597e+02 1.48356670e+01 
367 468.58 6.76427635e+02 1.46122733e+01 
368 469.38 6.77037687e+02 1.45105643e+01 
369 470.18 6.77622604e+02 1.51786962e+01 
370 470.99 6.84190793e+02 1.55717980e+01 
371 471.79 6.94961746e+02 1.55704642e+01 
372 472.59 7.04197635e+02 1.55561617e+01 
373 473.40 7.10704483e+02 1.60059948e+01 
374 474.20 7.15125829e+02 1.57216974e+01 
375 475.00 7.18309229e+02 1.56362434e+01 
376 475.81 7.20426972e+02 1.58480604e+01 
377 476.61 7.24340823e+02 1.60371065e+01 
378 477.41 7.31603460e+02 1.58262032e+01 
379 478.21 7.38800860e+02 1.58532414e+01 
380 479.02 7.43507520e+02 1.60675761e+01 
381 479.82 7.46309423e+02 1.62899875e+01 
382 480.62 7.49458494e+02 1.63920879e+01 
383 481.43 7.51230573e+02 1.64081110e+01 
384 482.23 7.49823697e+02 1.61758041e+01 
385 483.03 7.44357015e+02 1.60108945e+01 
386 483.84 7.32700012e+02 1.54233216e+01 
387 484.64 7.09790673e+02 1.45291355e+01 
388 485.44 6.80834562e+02 1.44945358e+01 
389 486.24 6.62958214e+02 1.48863279e+01 
390 487.04 6.65855611e+02 1.45767257e+01 
391 487.85 6.85143809e+02 1.45293437e+01 
392 488.65 7.07638962e+02 1.51256113e+01 
393 489.45 7.23145841e+02 1.55256011e+01 
394 490.26 7.28707649e+02 1.53489353e+01 
395 491.06 7.26163826e+02 1.57608997e+01 
396 491.86 7.20620366e+02 1.62469498e+01 
397 492.66 7.20080060e+02 1.62928434e+01 
398 493.46 7.27246414e+02 1.62999638e+01 
399 494.27 7.35896169e+02 1.63378917e+01 
400 495.07 7.40807648e+02 1.63550910e+01 
401 495.87 7.42593709e+02 1.62696480e+01 
402 496.67 7.39746280e+02 1.59845767e+01 
403 497.48 7.34109085e+02 1.57759096e+01 
404 498.28 7.28186470e+02 1.58078264e+01 
405 499.08 7.21132950e+02 1.56138544e+01 
406 499.88 7.13488108e+02 1.55029360e+01 
407 500.68 7.06393140e+02 1.56568384e+01 
408 501.48 7.02634275e+02 1.57359450e+01 
409 502.29 7.04653865e+02 1.55099702e+01 
410 503.09 7.09369934e+02 1.52665591e+01 
411 503.89 7.15474714e+02 1.53594892e+01 
412 504.69 7.23264641e+02 1.57214006e+01 
413 505.49 7.29749296e+02 1.55534467e+01 
414 506.29 7.31356628e+02 1.55097057e+01 
415 507.09 7.27594765e+02 1.56412918e+01 
416 507.90 7.23338435e+02 1.59688787e+01 
417 508.70 7.21767027e+02 1.56902935e+01 
418 509.50 7.22839277e+02 1.56268113e+01 
419 510.30 7.24512736e+02 1.58604661e+01 
420 511.10 7.23509750e+02 1.57760965e+01 
421 511.90 7.19093262e+02 1.57649982e+01 
422 512.71 7.11483541e+02 1.57547580e+01 
423 513.51 7.03114207e+02 1.57672065e+01 
424 514.31 6.96490450e+02 1.55254449e+01 
425 515.11 6.86608106e+02 1.47244594e+01 
426 515.91 6.69408183e+02 1.41636027e+01 
427 516.71 6.51115023e+02 1.41727838e+01 
428 517.51 6.40340650e+02 1.41471916e+01 
429 518.31 6.44238149e+02 1.38642104e+01 
430 519.11 6.59960975e+02 1.38917401e+01 
431 519.91 6.76383351e+02 1.41016563e+01 
432 520.71 6.88495313e+02 1.42747850e+01 
433 521.52 6.93821693e+02 1.46484236e+01 
434 522.32 6.96603902e+02 1.51080461e+01 
435 523.12 7.01504738e+02 1.55328973e+01 
436 523.92 7.06853129e+02 1.54274780e+01 
437 524.72 7.07231008e+02 1.50010384e+01 
438 525.52 6.97925710e+02 1.49094191e+01 
439 526.32 6.85195277e+02 1.51629241e+01 
440 527.12 6.82022463e+02 1.53608684e+01 
441 527.92 6.91443893e+02 1.51308084e+01 
442 528.72 7.07529325e+02 1.49646230e+01 
443 529.52 7.21236392e+02 1.51119303e+01 
444 530.32 7.27468809e+02 1.51219093e+01 
445 531.12 7.25409986e+02 1.48686741e+01 
446 531.92 7.18560700e+02 1.48171299e+01 
447 532.72 7.11805598e+02 1.49679763e+01 
448 533.52 7.10609866e+02 1.49340780e+01 
449 534.32 7.16137189e+02 1.49479831e+01 
450 535.12 7.22153730e+02 1.47759756e+01 
451 535.92 7.23441518e+02 1.48333382e+01 
452 536.72 7.21462588e+02 1.50268068e+01 
453 537.52 7.18385836e+02 1.50923638e+01 
454 538.32 7.14133441e+02 1.47166923e+01 
455 539.12 7.08312657e+02 1.45171809e+01 
456 539.92 7.02582970e+02 1.44778403e+01 
457 540.72 7.00354482e+02 1.42316564e+01 
458 541.52 7.02805046e+02 1.39431685e+01 
459 542.32 7.08449847e+02 1.38267282e+01 
