% C0 (TOA Count Rate, /ms) for 4STAR VIS spectrometer (1044 channels) derived from (SEE Original files for sources) and recorded on 2018-04-13 17:00:39.
% Langley at MLO and airborne Data outside 2.0x the STD of 501 nm Langley residuals were screened out. 
% Including high Altitude rate spectra, matched to splined stratospheric AOD measured at MLO.
% Averages of c0 from multiple days including: , MLO -av-g-, infl-ig-ht, infl-ig-ht, high- a-lt, high- a-lt, high- a-lt, high- a-lt, high- a-lt. See the list of files below
% 20170605_VIS_C0_refined_Langley_MLO_May2017_averages.dat
% 20170807_VIS_C0_refined_langley_4STARpm.dat
% 20170807_VIS_C0_refined_langley_4STAR_subset_pm.dat
% 20170809_VIS_C0_refined_high_alt_low_m_frompolyfit.dat
% 20170815_VIS_C0_refined_high_alt_low_m_frompolyfit.dat
% 20170818_VIS_C0_refined_high_alt_low_m_frompolyfit.dat
% 20170903_VIS_C0_refined_high_alt_low_m_frompolyfitBonanza.dat
% 20170904_VIS_C0_refined_high_alt_low_m_frompolyfit.dat
Pix Wavelength C0 C0err
0 173.18 -5.00000000e-01 5.77350269e-01 
1 173.98 -1.00000000e+00 0.00000000e+00 
2 174.77 -1.00000000e+00 0.00000000e+00 
3 175.56 -1.00000000e+00 0.00000000e+00 
4 176.36 -1.00000000e+00 0.00000000e+00 
5 177.15 -1.00000000e+00 0.00000000e+00 
6 177.94 -1.00000000e+00 0.00000000e+00 
7 178.74 -1.00000000e+00 0.00000000e+00 
8 179.53 -1.00000000e+00 0.00000000e+00 
9 180.33 -1.00000000e+00 0.00000000e+00 
10 181.12 -1.00000000e+00 0.00000000e+00 
11 181.92 -1.00000000e+00 0.00000000e+00 
12 182.71 -1.00000000e+00 0.00000000e+00 
13 183.51 -1.00000000e+00 0.00000000e+00 
14 184.30 -1.00000000e+00 0.00000000e+00 
15 185.10 -1.00000000e+00 0.00000000e+00 
16 185.89 -1.00000000e+00 0.00000000e+00 
17 186.69 -1.00000000e+00 0.00000000e+00 
18 187.49 -1.00000000e+00 0.00000000e+00 
19 188.28 -1.00000000e+00 0.00000000e+00 
20 189.08 -1.00000000e+00 0.00000000e+00 
21 189.88 -1.00000000e+00 0.00000000e+00 
22 190.67 -1.00000000e+00 0.00000000e+00 
23 191.47 -1.00000000e+00 0.00000000e+00 
24 192.27 -1.00000000e+00 0.00000000e+00 
25 193.07 -1.00000000e+00 0.00000000e+00 
26 193.86 -1.00000000e+00 0.00000000e+00 
27 194.66 -1.00000000e+00 0.00000000e+00 
28 195.46 -1.00000000e+00 0.00000000e+00 
29 196.26 -1.00000000e+00 0.00000000e+00 
30 197.05 -1.00000000e+00 0.00000000e+00 
31 197.85 -1.00000000e+00 0.00000000e+00 
32 198.65 -1.00000000e+00 0.00000000e+00 
33 199.45 -1.00000000e+00 0.00000000e+00 
34 200.25 -1.00000000e+00 0.00000000e+00 
35 201.05 -1.00000000e+00 0.00000000e+00 
36 201.85 -1.00000000e+00 0.00000000e+00 
37 202.65 -1.00000000e+00 0.00000000e+00 
38 203.44 -1.00000000e+00 0.00000000e+00 
39 204.24 -1.00000000e+00 0.00000000e+00 
40 205.04 -1.00000000e+00 0.00000000e+00 
41 205.84 -1.00000000e+00 0.00000000e+00 
42 206.64 7.57037895e+37 1.51407579e+38 
43 207.44 6.99248553e-01 3.39849710e+00 
44 208.24 -2.59239017e-01 1.34498634e+00 
45 209.04 -3.78503120e-01 1.10312924e+00 
46 209.84 -2.66252897e-01 1.26484079e+00 
47 210.64 -1.28410660e-01 1.18327511e+00 
48 211.44 -1.37647990e-01 1.21224124e+00 
49 212.24 -1.99917018e-01 1.19720046e+00 
50 213.04 9.97970804e-01 2.90391502e+00 
51 213.85 1.91321293e+34 3.82642586e+34 
52 214.65 2.39900663e+33 4.79801326e+33 
53 215.45 3.03946660e+32 6.07893320e+32 
54 216.25 3.81473060e+31 7.62946120e+31 
55 217.05 4.81596332e+30 9.63192665e+30 
56 217.85 6.09423435e+29 1.21884687e+30 
57 218.65 7.67567735e+28 1.53513547e+29 
58 219.46 9.75423095e+27 1.95084619e+28 
59 220.26 1.23661667e+27 2.47323334e+27 
60 221.06 1.56942759e+26 3.13885518e+26 
61 221.86 1.99589344e+25 3.99178687e+25 
62 222.66 2.54175525e+24 5.08351050e+24 
63 223.47 3.24336275e+23 6.48672550e+23 
64 224.27 4.15380100e+22 8.30760200e+22 
65 225.07 5.31144012e+21 1.06228802e+22 
66 225.87 6.82192675e+20 1.36438535e+21 
67 226.68 4.28135175e+34 8.56270350e+34 
68 227.48 1.34765743e+33 2.69531485e+33 
69 228.28 5.41375648e+31 1.08275129e+32 
70 229.08 3.96958560e+30 7.93917120e+30 
71 229.89 8.30080278e+29 1.66016055e+30 
72 230.69 7.77978598e+29 1.55595719e+30 
73 231.49 3.56160065e+30 7.12320130e+30 
74 232.30 5.95079808e+31 1.19015961e+32 
75 233.10 2.16707671e+33 4.33415342e+33 
76 233.90 1.48962838e+20 2.97925676e+20 
77 234.71 1.53236807e+21 3.06473614e+21 
78 235.51 1.65582789e+22 3.31165579e+22 
79 236.32 1.83401745e+23 3.66803490e+23 
80 237.12 2.05011579e+24 4.10023159e+24 
81 237.92 2.31042726e+25 4.62085451e+25 
82 238.73 2.65720018e+26 5.31440035e+26 
83 239.53 3.07756388e+27 6.15512775e+27 
84 240.34 3.42700625e+28 6.85401250e+28 
85 241.14 3.56777660e+29 7.13555320e+29 
86 241.94 3.44224280e+30 6.88448560e+30 
87 242.75 3.05987878e+31 6.11975755e+31 
88 243.55 2.48318141e+32 4.96636282e+32 
89 244.36 1.89683007e+33 3.79366013e+33 
90 245.16 1.29254780e+34 2.58509561e+34 
91 245.97 7.92297918e+34 1.58459584e+35 
92 246.77 -2.22201310e-01 1.16401036e+00 
93 247.58 -2.78422888e-01 1.08767954e+00 
94 248.38 -1.86904472e-01 1.08227633e+00 
95 249.19 -2.09802148e-01 1.18236529e+00 
96 249.99 -2.42190247e-01 1.10747452e+00 
97 250.80 -3.00068223e-01 1.00155655e+00 
98 251.60 2.24963286e+11 4.49926573e+11 
99 252.41 -3.09810716e-01 1.23153137e+00 
100 253.21 -3.30194623e-01 1.14013542e+00 
101 254.02 -1.99105928e-01 1.36262962e+00 
102 254.82 -2.70041115e-01 1.30943682e+00 
103 255.63 -3.85715450e-01 1.03268128e+00 
104 256.44 -3.94140238e-01 1.01920603e+00 
105 257.24 -2.98393854e-01 1.16739793e+00 
106 258.05 1.53010282e+06 3.06020618e+06 
107 258.85 1.22460364e-01 1.31959453e+00 
108 259.66 -3.08110756e-01 1.06767576e+00 
109 260.46 -2.37577225e-01 1.11449739e+00 
110 261.27 -2.08065386e-01 1.15323905e+00 
111 262.08 -2.60988897e-01 1.06618615e+00 
112 262.88 4.20245425e-03 1.51606273e+00 
113 263.69 2.93948368e+34 5.87896735e+34 
114 264.49 4.73438067e+33 9.46876135e+33 
115 265.30 6.72658087e+32 1.34531617e+33 
116 266.11 7.59452760e+31 1.51890552e+32 
117 266.91 7.36811093e+30 1.47362219e+31 
118 267.72 6.22597780e+29 1.24519556e+30 
119 268.53 4.65279752e+28 9.30559505e+28 
120 269.33 3.66044055e+27 7.32088110e+27 
121 270.14 3.37791982e+26 6.75583965e+26 
122 270.95 2.91387720e+25 5.82775440e+25 
123 271.75 2.27398130e+24 4.54796261e+24 
124 272.56 1.64115314e+23 3.28230627e+23 
125 273.37 1.04648208e+22 2.09296416e+22 
126 274.17 6.53796775e+20 1.30759355e+21 
127 274.98 1.83468074e+34 3.66936148e+34 
128 275.79 2.45932611e+32 4.91865222e+32 
129 276.59 3.81527348e+30 7.63054695e+30 
130 277.40 6.30903723e+28 1.26180744e+29 
131 278.21 1.00730055e+27 2.01460109e+27 
132 279.01 1.79941071e+25 3.59882142e+25 
133 279.82 3.60313730e+23 7.20627460e+23 
134 280.63 7.07729365e+21 1.41545873e+22 
135 281.43 1.53045246e+20 3.06090491e+20 
136 282.24 4.58828845e+18 9.17657677e+18 
137 283.05 1.86433663e+17 3.72867306e+17 
138 283.86 8.92660007e+15 1.78531968e+16 
139 284.66 4.32789341e+14 8.65578106e+14 
140 285.47 2.60883966e+13 5.21766816e+13 
141 286.28 2.16642939e+12 4.33283273e+12 
142 287.09 2.00040971e+11 4.00075479e+11 
143 287.89 1.87384828e+10 3.74753501e+10 
144 288.70 2.09856658e+09 4.19667838e+09 
145 289.51 3.00924842e+08 6.01704001e+08 
146 290.32 5.12862971e+07 1.02521163e+08 
147 291.12 9.55245265e+06 1.90858097e+07 
148 291.93 1.92466528e+06 3.84174083e+06 
149 292.74 4.56018180e+05 9.08827879e+05 
150 293.55 1.22014080e+05 2.42525377e+05 
151 294.35 3.70577272e+04 7.33703485e+04 
152 295.16 1.24632704e+04 2.45291137e+04 
153 295.97 4.57979870e+03 8.93821213e+03 
154 296.78 1.81417737e+03 3.50122580e+03 
155 297.58 7.83411902e+02 1.48966277e+03 
156 298.39 3.71320847e+02 6.92725616e+02 
157 299.20 1.93836451e+02 3.53431587e+02 
158 300.01 1.08118111e+02 1.91970894e+02 
159 300.81 6.45760538e+01 1.11250238e+02 
160 301.62 4.05945289e+01 6.74513856e+01 
161 302.43 2.71526455e+01 4.34781073e+01 
162 303.24 1.91244242e+01 2.93493240e+01 
163 304.04 1.40139372e+01 2.05799050e+01 
164 304.85 1.06175200e+01 1.48244388e+01 
165 305.66 8.29642605e+00 1.10596306e+01 
166 306.47 6.71458019e+00 8.53049761e+00 
167 307.28 5.50995426e+00 6.59488052e+00 
168 308.08 4.73109934e+00 5.41163608e+00 
169 308.89 4.10618048e+00 4.45499024e+00 
170 309.70 3.57214443e+00 3.64422203e+00 
171 310.51 3.20679575e+00 3.13316158e+00 
172 311.32 2.89216335e+00 2.66362731e+00 
173 312.12 2.60803936e+00 2.26498332e+00 
174 312.93 2.41086179e+00 1.98564132e+00 
175 313.74 2.23422660e+00 1.74634775e+00 
176 314.55 2.13264142e+00 1.59037685e+00 
177 315.36 2.03589312e+00 1.45106103e+00 
178 316.16 1.96249853e+00 1.34803801e+00 
179 316.97 1.90646509e+00 1.26433666e+00 
180 317.78 1.84212007e+00 1.16047580e+00 
181 318.59 1.80068302e+00 1.09591076e+00 
182 319.40 1.77933635e+00 1.04720677e+00 
183 320.20 1.74712217e+00 9.86245546e-01 
184 321.01 1.71909050e+00 9.26858678e-01 
185 321.82 1.72278071e+00 9.03650867e-01 
186 322.63 1.72411626e+00 8.84015670e-01 
187 323.43 1.71044087e+00 8.37877796e-01 
188 324.24 1.70603145e+00 8.08217695e-01 
189 325.05 1.72082874e+00 7.98164724e-01 
190 325.86 1.73173903e+00 7.73333164e-01 
191 326.67 1.73230825e+00 7.43605460e-01 
192 327.48 1.76246623e+00 7.40899170e-01 
193 328.28 1.78280630e+00 7.31162795e-01 
194 329.09 1.81153635e+00 7.16606585e-01 
195 329.90 1.84156001e+00 7.03135153e-01 
196 330.71 1.91382161e+00 7.18159740e-01 
197 331.52 2.00536199e+00 7.23520416e-01 
198 332.32 2.16450415e+00 7.42209866e-01 
199 333.13 2.45528395e+00 7.82586227e-01 
200 333.94 2.99957842e+00 8.70828524e-01 
201 334.75 3.85706246e+00 9.63732071e-01 
202 335.55 5.01947580e+00 1.07757286e+00 
203 336.36 6.68076547e+00 1.21263695e+00 
204 337.17 9.27443207e+00 1.36684958e+00 
205 337.98 1.28306420e+01 1.47425120e+00 
206 338.79 1.70648911e+01 1.49898610e+00 
207 339.60 2.17880948e+01 1.43838626e+00 
208 340.40 2.60080584e+01 1.28136421e+00 
209 341.21 2.96259941e+01 1.22018084e+00 
210 342.02 3.39115066e+01 1.23882119e+00 
211 342.83 3.75653108e+01 1.03232840e+00 
212 343.63 3.84853500e+01 8.86917012e-01 
213 344.44 4.01526904e+01 1.07626912e+00 
214 345.25 4.47129308e+01 1.23634605e+00 
215 346.06 4.88812668e+01 1.23755628e+00 
216 346.87 5.16450405e+01 1.28737271e+00 
217 347.67 5.36223301e+01 1.33208292e+00 
218 348.48 5.56141904e+01 1.45011751e+00 
219 349.29 5.91893377e+01 1.66231326e+00 
220 350.10 6.50456796e+01 1.90992017e+00 
221 350.90 6.87799533e+01 2.02520528e+00 
222 351.71 6.89738582e+01 2.08029268e+00 
223 352.52 7.06801186e+01 2.15029083e+00 
224 353.33 7.72648153e+01 2.47098534e+00 
225 354.14 8.49561110e+01 2.76729786e+00 
226 354.94 8.82348588e+01 2.93797661e+00 
227 355.75 8.65650444e+01 2.95545363e+00 
228 356.56 8.16324358e+01 2.73931375e+00 
229 357.37 7.69638344e+01 2.52003129e+00 
230 358.18 7.65554571e+01 2.51970927e+00 
231 358.98 8.65423720e+01 3.13420261e+00 
232 359.79 9.92090343e+01 3.50315665e+00 
233 360.60 1.00504226e+02 3.66470976e+00 
234 361.41 9.95088800e+01 3.63963338e+00 
235 362.21 1.05246676e+02 3.86476245e+00 
236 363.02 1.11378923e+02 4.15266320e+00 
237 363.83 1.15127321e+02 4.40271557e+00 
238 364.64 1.21095212e+02 4.71213638e+00 
239 365.44 1.32184049e+02 5.20872881e+00 
240 366.25 1.41249235e+02 5.62527196e+00 
241 367.06 1.42185793e+02 5.79092981e+00 
242 367.87 1.40106954e+02 5.78617209e+00 
243 368.67 1.42575832e+02 5.95499502e+00 
244 369.48 1.48732498e+02 6.14088491e+00 
245 370.29 1.49787039e+02 6.32580591e+00 
246 371.10 1.48161219e+02 6.25070837e+00 
247 371.90 1.44266652e+02 6.08438576e+00 
248 372.71 1.36206067e+02 5.83982330e+00 
249 373.52 1.29002644e+02 5.51942815e+00 
250 374.33 1.28989439e+02 5.73006448e+00 
251 375.13 1.38414282e+02 6.27336197e+00 
252 375.94 1.50684764e+02 6.90239534e+00 
253 376.75 1.64021302e+02 7.81115045e+00 
254 377.56 1.79308648e+02 8.40920937e+00 
255 378.36 1.82464017e+02 8.43346574e+00 
256 379.17 1.72962176e+02 8.35157349e+00 
257 379.98 1.69929277e+02 8.21958675e+00 
258 380.78 1.69415626e+02 7.80530680e+00 
259 381.59 1.53767113e+02 7.22557324e+00 
260 382.40 1.31150047e+02 6.32699757e+00 
261 383.20 1.21846146e+02 6.01894570e+00 
262 384.01 1.33298529e+02 6.97526930e+00 
263 384.82 1.50377998e+02 7.51789573e+00 
264 385.63 1.56941470e+02 7.83903906e+00 
265 386.43 1.58372890e+02 8.05832019e+00 
266 387.24 1.59579355e+02 8.16332242e+00 
267 388.05 1.62421508e+02 8.70066263e+00 
268 388.85 1.72911173e+02 9.68292186e+00 
269 389.66 1.89155225e+02 1.06797333e+01 
270 390.47 2.01739041e+02 1.13608356e+01 
271 391.27 2.02171144e+02 1.09703867e+01 
272 392.08 1.79264163e+02 9.57117161e+00 
273 392.89 1.45619512e+02 8.55758093e+00 
274 393.69 1.40430924e+02 9.39134342e+00 
275 394.50 1.68961688e+02 1.14492576e+01 
276 395.31 1.87152583e+02 1.09676417e+01 
277 396.11 1.73093287e+02 1.04250921e+01 
278 396.92 1.65669167e+02 1.16841808e+01 
279 397.73 1.98040561e+02 1.51094849e+01 
280 398.53 2.43306065e+02 1.74588630e+01 
281 399.34 2.70992108e+02 1.88877450e+01 
282 400.15 2.84558794e+02 1.99744055e+01 
283 400.95 2.94484534e+02 2.07998369e+01 
284 401.76 3.02243579e+02 2.11556377e+01 
285 402.57 3.04289834e+02 2.11659761e+01 
286 403.37 3.02578894e+02 2.10298133e+01 
287 404.18 3.01359557e+02 2.08799583e+01 
288 404.99 3.00103682e+02 2.07062190e+01 
289 405.79 2.98700721e+02 2.05546221e+01 
290 406.60 2.99934049e+02 2.08608066e+01 
291 407.40 3.07880752e+02 2.16220194e+01 
292 408.21 3.19596872e+02 2.21196972e+01 
293 409.02 3.23509548e+02 2.17273067e+01 
294 409.82 3.19428264e+02 2.18876665e+01 
295 410.63 3.24146919e+02 2.28891408e+01 
296 411.43 3.38439375e+02 2.36299043e+01 
297 412.24 3.46964306e+02 2.41037433e+01 
298 413.05 3.47604014e+02 2.45952155e+01 
299 413.85 3.47421649e+02 2.49583232e+01 
300 414.66 3.47875713e+02 2.54569341e+01 
301 415.46 3.49169978e+02 2.60820944e+01 
302 416.27 3.49126570e+02 2.62800127e+01 
303 417.08 3.44207554e+02 2.63907932e+01 
304 417.88 3.38156376e+02 2.67810650e+01 
305 418.69 3.35680601e+02 2.72499503e+01 
306 419.49 3.36479965e+02 2.81575024e+01 
307 420.30 3.40827218e+02 2.93193839e+01 
308 421.11 3.44306894e+02 2.96732149e+01 
309 421.91 3.40740924e+02 2.95601525e+01 
310 422.72 3.34775233e+02 2.97324899e+01 
311 423.52 3.34703883e+02 2.99554065e+01 
312 424.33 3.38190142e+02 3.00556982e+01 
313 425.13 3.40095051e+02 3.00243463e+01 
314 425.94 3.39883362e+02 2.95696964e+01 
315 426.74 3.38938269e+02 2.90199002e+01 
316 427.55 3.37867203e+02 2.83553311e+01 
317 428.36 3.33031652e+02 2.67051911e+01 
318 429.16 3.18959191e+02 2.43679981e+01 
319 429.96 3.05002373e+02 2.32730509e+01 
320 430.77 3.14323274e+02 2.41095480e+01 
321 431.58 3.48151891e+02 2.49778998e+01 
322 432.38 3.81048514e+02 2.48108824e+01 
323 433.19 3.96035707e+02 2.43563982e+01 
324 433.99 4.04510293e+02 2.40976726e+01 
325 434.80 4.21166718e+02 2.40531316e+01 
326 435.60 4.43933023e+02 2.34271795e+01 
327 436.41 4.58614819e+02 2.21133486e+01 
328 437.21 4.57934093e+02 2.06477307e+01 
329 438.02 4.51918503e+02 1.97686812e+01 
330 438.82 4.55087891e+02 1.90446037e+01 
331 439.63 4.69077873e+02 1.81449799e+01 
332 440.43 4.89049131e+02 1.80044276e+01 
333 441.24 5.09854540e+02 1.78541408e+01 
334 442.04 5.28255081e+02 1.73068334e+01 
335 442.85 5.40737516e+02 1.71102968e+01 
336 443.65 5.48021421e+02 1.67930174e+01 
337 444.45 5.50848175e+02 1.60656863e+01 
338 445.26 5.50593188e+02 1.57737069e+01 
339 446.06 5.55563700e+02 1.58408406e+01 
340 446.87 5.65865685e+02 1.19085224e+01 
341 447.67 5.82674271e+02 1.15413265e+01 
342 448.48 5.95612443e+02 1.17010948e+01 
343 449.28 6.08086099e+02 1.19690125e+01 
344 450.09 6.22073820e+02 1.18827252e+01 
345 450.89 6.30034171e+02 1.13919307e+01 
346 451.70 6.24398425e+02 1.12179456e+01 
347 452.50 6.12488328e+02 1.12932840e+01 
348 453.30 6.07554423e+02 1.11961605e+01 
349 454.11 6.11988552e+02 1.08316901e+01 
350 454.91 6.22102088e+02 1.09844453e+01 
351 455.72 6.32985448e+02 1.11877188e+01 
352 456.52 6.42171271e+02 1.11139083e+01 
353 457.32 6.46144430e+02 1.09773764e+01 
354 458.13 6.45074436e+02 1.10268881e+01 
355 458.93 6.44421931e+02 1.11189430e+01 
356 459.74 6.48961043e+02 1.12843007e+01 
357 460.54 6.58017296e+02 1.15132580e+01 
358 461.34 6.67623842e+02 1.16014911e+01 
359 462.15 6.73833473e+02 1.17179702e+01 
360 462.95 6.73964554e+02 1.16829291e+01 
361 463.76 6.69572104e+02 1.16258448e+01 
362 464.56 6.65352893e+02 1.16933443e+01 
363 465.36 6.62571756e+02 1.16183468e+01 
364 466.17 6.61220268e+02 1.15443811e+01 
365 466.97 6.62134434e+02 1.16376143e+01 
366 467.77 6.65847604e+02 1.14988556e+01 
367 468.58 6.69831341e+02 1.13358662e+01 
368 469.38 6.70297270e+02 1.13123055e+01 
369 470.18 6.70993958e+02 1.17936042e+01 
370 470.99 6.78064482e+02 1.20496127e+01 
371 471.79 6.88698250e+02 1.19701546e+01 
372 472.59 6.97619615e+02 1.19590853e+01 
373 473.40 7.03883537e+02 1.23126747e+01 
374 474.20 7.08252085e+02 1.20575647e+01 
375 475.00 7.11066892e+02 1.19742773e+01 
376 475.81 7.12995491e+02 1.20603418e+01 
377 476.61 7.17306535e+02 1.22334651e+01 
378 477.41 7.24731608e+02 1.20625096e+01 
379 478.21 7.31803895e+02 1.20782956e+01 
380 479.02 7.36403510e+02 1.22544354e+01 
381 479.82 7.39236544e+02 1.24136394e+01 
382 480.62 7.42386641e+02 1.23986095e+01 
383 481.43 7.44002120e+02 1.23892660e+01 
384 482.23 7.42360388e+02 1.21598641e+01 
385 483.03 7.36596720e+02 1.19926365e+01 
386 483.84 7.24579529e+02 1.15724168e+01 
387 484.64 7.00983685e+02 1.10321887e+01 
388 485.44 6.71825118e+02 1.10268668e+01 
389 486.24 6.55399883e+02 1.11848511e+01 
390 487.04 6.59892543e+02 1.09051904e+01 
391 487.85 6.79528844e+02 1.08363169e+01 
392 488.65 7.01609863e+02 1.12277960e+01 
393 489.45 7.16552726e+02 1.14449048e+01 
394 490.26 7.21386463e+02 1.11607214e+01 
395 491.06 7.18030621e+02 1.13481925e+01 
396 491.86 7.12536883e+02 1.17184446e+01 
397 492.66 7.12433303e+02 1.17547939e+01 
398 493.46 7.19778129e+02 1.16438784e+01 
399 494.27 7.28120814e+02 1.16188336e+01 
400 495.07 7.32556457e+02 1.15676281e+01 
401 495.87 7.34200724e+02 1.15580546e+01 
402 496.67 7.31156968e+02 1.13723258e+01 
403 497.48 7.25504540e+02 1.12332610e+01 
404 498.28 7.19758335e+02 1.13045661e+01 
405 499.08 7.12896217e+02 1.11534574e+01 
406 499.88 7.05131192e+02 1.09815735e+01 
407 500.68 6.98253112e+02 1.11356148e+01 
408 501.48 6.95052878e+02 1.12119965e+01 
409 502.29 6.97496725e+02 1.10267840e+01 
410 503.09 7.02250610e+02 1.08516942e+01 
411 503.89 7.08474791e+02 1.10845413e+01 
412 504.69 7.16224773e+02 1.13896049e+01 
413 505.49 7.22385802e+02 1.11618503e+01 
414 506.29 7.23386528e+02 1.10044857e+01 
415 507.09 7.19289181e+02 1.11654691e+01 
416 507.90 7.15185094e+02 1.14818911e+01 
417 508.70 7.13930205e+02 1.11549357e+01 
418 509.50 7.15019057e+02 1.10356915e+01 
419 510.30 7.16686460e+02 1.11838950e+01 
420 511.10 7.15617462e+02 1.10456148e+01 
421 511.90 7.10934814e+02 1.09432199e+01 
422 512.71 7.03169215e+02 1.08817572e+01 
423 513.51 6.94917905e+02 1.09334020e+01 
424 514.31 6.88602403e+02 1.07400331e+01 
425 515.11 6.78501242e+02 1.00380229e+01 
426 515.91 6.60819280e+02 9.66388596e+00 
427 516.71 6.42857537e+02 9.95537073e+00 
428 517.51 6.33023513e+02 1.00195878e+01 
429 518.31 6.38068072e+02 9.92706481e+00 
430 519.11 6.54120808e+02 9.97408550e+00 
431 519.91 6.70274889e+02 1.00356485e+01 
432 520.71 6.82100134e+02 1.01483722e+01 
433 521.52 6.86893917e+02 1.03467454e+01 
434 522.32 6.89559641e+02 1.07622606e+01 
435 523.12 6.94678371e+02 1.11032269e+01 
436 523.92 6.99976003e+02 1.09511861e+01 
437 524.72 6.99860331e+02 1.04706935e+01 
438 525.52 6.89725467e+02 1.04074158e+01 
439 526.32 6.77110151e+02 1.07900132e+01 
440 527.12 6.75020448e+02 1.10605007e+01 
441 527.92 6.85197685e+02 1.09068806e+01 
442 528.72 7.01179908e+02 1.07110116e+01 
443 529.52 7.14385164e+02 1.07742337e+01 
444 530.32 7.20239295e+02 1.08200246e+01 
445 531.12 7.17708037e+02 1.06342839e+01 
446 531.92 7.10732224e+02 1.06632687e+01 
447 532.72 7.04392385e+02 1.09030917e+01 
448 533.52 7.03822236e+02 1.09089637e+01 
449 534.32 7.09684104e+02 1.08451326e+01 
450 535.12 7.15489836e+02 1.06649836e+01 
451 535.92 7.16319605e+02 1.06383117e+01 
452 536.72 7.14274141e+02 1.07991301e+01 
