% C0 (TOA Count Rate, /ms) for 4STAR NIR spectrometer (512 channels) derived from (SEE Original files for sources) and recorded on 2017-08-10 17:05:29.
% Langley at MLO and airborne Data outside 2.0x the STD of 501 nm Langley residuals were screened out. 
% Including high Altitude rate spectra, matched to splined stratospheric AOD measured at MLO.
% Averages of c0 from multiple days including: , MLO -av-g-, WFF--20-17, infl-ig-ht. See the list of files below
% 20170605_NIR_C0_refined_Langley_MLO_May2017_averages.dat
% 20170801_NIR_C0_refined_langley_4STAR_WFF_ground.dat
% 20170807_NIR_C0_refined_langley_4STARpm.dat
Pix Wavelength C0 C0err
511 949.79 4.14306109e+00 8.94397511e-01 
510 949.79 3.45121738e+00 2.46183124e+00 
509 951.68 4.10959302e+00 1.96261980e+00 
508 953.57 4.22175696e+00 1.87897589e+00 
507 955.46 4.63648513e+00 1.93495105e+00 
506 957.34 4.79253922e+00 1.86884601e+00 
505 959.22 5.28579789e+00 1.84311440e+00 
504 961.10 5.45230836e+00 1.76286089e+00 
503 962.98 5.95884705e+00 1.68119886e+00 
502 964.85 6.11567865e+00 1.47657624e+00 
501 966.72 6.75798305e+00 1.29989687e+00 
500 968.59 6.96900537e+00 1.06486212e+00 
499 970.45 7.42145311e+00 9.91422565e-01 
498 972.32 7.32980010e+00 1.04801733e+00 
497 974.18 7.61510219e+00 1.12243941e+00 
496 976.04 7.58316318e+00 1.07469546e+00 
495 977.89 8.01595587e+00 9.41380520e-01 
494 979.74 8.05780305e+00 7.67909434e-01 
493 981.59 8.46842967e+00 5.97644605e-01 
492 983.44 8.47495996e+00 4.18974704e-01 
491 985.29 8.83611674e+00 2.73120389e-01 
490 987.13 8.70928351e+00 1.69682123e-01 
489 988.97 8.99708605e+00 1.11137105e-01 
488 990.81 8.82794735e+00 9.52707669e-02 
487 992.65 9.03555928e+00 7.72750300e-02 
486 994.48 8.84902409e+00 6.44063849e-02 
485 996.31 9.00159656e+00 6.94033503e-02 
484 998.14 8.73634794e+00 6.70662087e-02 
483 999.97 8.88636367e+00 6.82119855e-02 
482 1001.79 8.60454951e+00 6.94519715e-02 
481 1003.62 8.69287560e+00 6.78260199e-02 
480 1005.44 8.47628360e+00 6.54554654e-02 
479 1007.25 8.72714069e+00 6.75286428e-02 
478 1009.07 8.53596226e+00 6.28432302e-02 
477 1010.88 8.70707750e+00 7.12753075e-02 
476 1012.69 8.45250469e+00 6.80973012e-02 
475 1014.50 8.57404185e+00 6.84496502e-02 
474 1016.31 8.36090469e+00 6.52493559e-02 
473 1018.11 8.51424668e+00 7.22168097e-02 
472 1019.91 8.26324765e+00 7.23596460e-02 
471 1021.71 8.41538949e+00 7.37898634e-02 
470 1023.51 8.18863794e+00 7.21721408e-02 
469 1025.30 8.36025259e+00 8.25724375e-02 
468 1027.09 8.25689930e+00 8.73082970e-02 
467 1028.88 8.42132844e+00 8.92624062e-02 
466 1030.67 8.26126994e+00 8.99140383e-02 
465 1032.46 8.43251345e+00 9.82142111e-02 
464 1034.24 8.27433470e+00 9.98418839e-02 
463 1036.02 8.45784781e+00 1.01670583e-01 
462 1037.80 8.34133450e+00 8.72748499e-02 
461 1039.58 8.54080046e+00 1.01925720e-01 
460 1041.35 8.40776978e+00 9.28637716e-02 
459 1043.12 8.57580466e+00 1.07206923e-01 
458 1044.89 8.48031871e+00 1.08194777e-01 
457 1046.66 8.69724020e+00 1.08174721e-01 
456 1048.43 8.62371932e+00 1.09387490e-01 
455 1050.19 8.84475115e+00 1.09063844e-01 
454 1051.95 8.67786079e+00 9.38016782e-02 
453 1053.71 8.92869589e+00 1.00316845e-01 
452 1055.47 8.75127125e+00 1.03885170e-01 
451 1057.23 8.88516606e+00 1.04229561e-01 
450 1058.98 8.74269962e+00 1.00401694e-01 
449 1060.73 8.93785848e+00 1.08696357e-01 
448 1062.48 8.73700809e+00 1.14991627e-01 
447 1064.23 8.87739659e+00 1.14118726e-01 
446 1065.97 8.55547571e+00 1.16787365e-01 
445 1067.71 8.58569240e+00 1.09038147e-01 
444 1069.46 8.37947543e+00 1.05581988e-01 
443 1071.19 8.48084524e+00 1.25329422e-01 
442 1072.93 8.30524127e+00 1.34810256e-01 
441 1074.67 8.37965123e+00 1.63961682e-01 
440 1076.40 8.16818025e+00 1.81718080e-01 
439 1078.13 8.19021840e+00 2.11706147e-01 
438 1079.86 7.95566946e+00 2.19391986e-01 
437 1081.58 8.00399833e+00 2.71224976e-01 
436 1083.31 7.84003742e+00 3.20803073e-01 
435 1085.03 7.98991643e+00 3.47510822e-01 
434 1086.75 7.90250656e+00 3.86974255e-01 
433 1088.47 8.05488820e+00 3.67213241e-01 
432 1090.19 7.88218080e+00 4.63925126e-01 
431 1091.90 7.93192212e+00 5.52044773e-01 
430 1093.61 7.73324026e+00 6.36252578e-01 
429 1095.33 7.83740849e+00 7.77641432e-01 
428 1097.03 7.75393224e+00 9.58324529e-01 
427 1098.74 7.86001293e+00 1.14053348e+00 
426 1100.45 7.76688886e+00 1.25705331e+00 
425 1102.15 7.93765063e+00 1.43629825e+00 
424 1103.85 7.82806910e+00 1.57291478e+00 
423 1105.55 7.94735935e+00 1.71215865e+00 
422 1107.25 7.78203553e+00 1.83764520e+00 
421 1108.94 7.79253928e+00 1.98073895e+00 
420 1110.64 7.33622058e+00 2.25131898e+00 
419 1112.33 6.91019657e+00 2.77726896e+00 
418 1114.02 6.19939555e+00 3.12755639e+00 
417 1115.70 5.67285866e+00 3.75176390e+00 
416 1117.39 5.15966761e+00 4.07963230e+00 
415 1119.07 5.21976100e+00 3.85552489e+00 
414 1120.76 4.91287711e+00 4.06976072e+00 
413 1122.44 4.95949611e+00 3.98161382e+00 
412 1124.12 4.84267760e+00 4.05705038e+00 
411 1125.79 4.97554217e+00 4.17720027e+00 
410 1127.47 5.08990994e+00 4.26634038e+00 
409 1129.14 5.38380824e+00 4.37955763e+00 
408 1130.81 5.37092698e+00 3.70978169e+00 
407 1132.48 4.97484201e+00 4.12897322e+00 
406 1134.15 5.15513592e+00 3.61646444e+00 
405 1135.81 5.58218882e+00 3.59946178e+00 
404 1137.48 6.27064246e+00 3.40744192e+00 
403 1139.14 6.74641559e+00 3.10626360e+00 
402 1140.80 5.80930758e+00 4.20873888e+00 
401 1142.46 5.58251556e+00 4.34214480e+00 
400 1144.12 5.29911680e+00 4.28562451e+00 
399 1145.77 5.55580896e+00 3.86455961e+00 
398 1147.43 5.70031733e+00 3.64663024e+00 
397 1149.08 6.02167839e+00 3.51377348e+00 
396 1150.73 5.65390837e+00 4.11680602e+00 
395 1152.38 6.39180239e+00 3.34461129e+00 
394 1154.02 6.06777371e+00 3.94019435e+00 
393 1155.67 7.10427189e+00 2.66644601e+00 
392 1157.31 7.20155615e+00 2.40853142e+00 
391 1158.95 7.44724682e+00 2.26148312e+00 
390 1160.59 7.60150003e+00 1.99150395e+00 
389 1162.23 7.89461713e+00 1.81429702e+00 
388 1163.87 7.96361375e+00 1.60669122e+00 
387 1165.50 8.07345353e+00 1.57450302e+00 
386 1167.13 8.07958751e+00 1.41818316e+00 
385 1168.76 8.30810308e+00 1.22729950e+00 
384 1170.39 8.16350439e+00 1.24780492e+00 
383 1172.02 8.17557224e+00 1.21339609e+00 
382 1173.65 7.98443561e+00 1.22632788e+00 
381 1175.27 8.01589145e+00 1.15606351e+00 
380 1176.90 8.00606622e+00 1.00113190e+00 
379 1178.52 7.86532850e+00 1.15116036e+00 
378 1180.14 7.69866700e+00 1.09145417e+00 
377 1181.75 7.66550181e+00 1.11355635e+00 
376 1183.37 7.51761103e+00 1.04734626e+00 
375 1184.99 7.54919717e+00 1.04672523e+00 
374 1186.60 7.47957193e+00 9.76956190e-01 
373 1188.21 7.48469000e+00 9.47848864e-01 
372 1189.82 7.50145859e+00 8.05757463e-01 
371 1191.43 7.73686324e+00 7.22067424e-01 
370 1193.04 7.64099444e+00 6.90462128e-01 
369 1194.64 7.58307041e+00 7.38288581e-01 
368 1196.24 7.35410415e+00 7.87286271e-01 
367 1197.85 7.38948067e+00 7.93920969e-01 
366 1199.45 7.22933695e+00 8.54623407e-01 
365 1201.05 7.32989634e+00 8.36438571e-01 
364 1202.64 7.32689084e+00 7.58137717e-01 
363 1204.24 7.39465854e+00 7.24274032e-01 
362 1205.83 7.39654843e+00 6.15017873e-01 
361 1207.43 7.39407481e+00 6.22204377e-01 
360 1209.02 7.31430019e+00 6.62206116e-01 
359 1210.61 7.42799992e+00 6.83460985e-01 
358 1212.19 7.41977294e+00 6.79467858e-01 
357 1213.78 7.61074570e+00 6.16614949e-01 
356 1215.37 7.59567618e+00 5.39581732e-01 
355 1216.95 7.71968646e+00 4.40190960e-01 
354 1218.53 7.69560952e+00 4.20877300e-01 
353 1220.11 7.76191881e+00 4.35880499e-01 
352 1221.69 7.73350149e+00 4.15321462e-01 
351 1223.27 7.78806239e+00 3.90670527e-01 
350 1224.84 7.81699904e+00 3.23414408e-01 
349 1226.42 7.91531226e+00 2.63866568e-01 
348 1227.99 7.92852513e+00 2.20912832e-01 
347 1229.56 8.07938157e+00 1.84554456e-01 
346 1231.13 8.03646024e+00 1.36577970e-01 
345 1232.70 8.11852959e+00 1.08212161e-01 
344 1234.27 8.07909044e+00 9.21489334e-02 
343 1235.84 8.10549545e+00 8.25906750e-02 
342 1237.40 8.04830244e+00 6.77839150e-02 
341 1238.96 8.04774719e+00 5.49430480e-02 
340 1240.52 7.89884591e+00 5.08651925e-02 
339 1242.08 8.02622149e+00 5.70796294e-02 
338 1243.64 8.00535271e+00 4.96565261e-02 
337 1245.20 8.04904572e+00 5.26313088e-02 
336 1246.75 8.00804938e+00 5.59639313e-02 
335 1248.31 8.06801690e+00 5.63807149e-02 
334 1249.86 7.98836374e+00 5.79222195e-02 
333 1251.41 8.02417596e+00 6.40173902e-02 
332 1252.96 7.94495742e+00 7.62943494e-02 
331 1254.51 7.96529494e+00 8.12910762e-02 
330 1256.06 7.85530787e+00 1.00962464e-01 
329 1257.61 7.80678484e+00 1.22975174e-01 
328 1259.15 7.66829825e+00 1.64798459e-01 
327 1260.69 7.60269258e+00 2.13519608e-01 
326 1262.23 7.47247717e+00 2.52536562e-01 
325 1263.77 7.44193323e+00 2.76782795e-01 
324 1265.31 7.22245561e+00 3.87667632e-01 
323 1266.85 7.23836525e+00 4.02508687e-01 
322 1268.39 7.28061165e+00 4.07132002e-01 
321 1269.92 7.42736520e+00 3.39170538e-01 
320 1271.46 7.62096121e+00 2.15963648e-01 
319 1272.99 7.69782856e+00 1.72099969e-01 
318 1274.52 7.68664855e+00 1.71143821e-01 
317 1276.05 7.75665580e+00 1.63749271e-01 
316 1277.58 7.62971711e+00 1.54705703e-01 
315 1279.10 7.49702827e+00 1.21993326e-01 
314 1280.63 7.44502510e+00 1.18864088e-01 
313 1282.15 7.46183787e+00 1.00826584e-01 
312 1283.68 7.54296059e+00 1.04716956e-01 
311 1285.20 7.66754431e+00 1.56022849e-01 
310 1286.72 7.59122562e+00 1.81475900e-01 
309 1288.24 7.56475057e+00 2.36546302e-01 
308 1289.75 7.45510952e+00 2.48410490e-01 
307 1291.27 7.47933086e+00 2.53576682e-01 
306 1292.78 7.43204575e+00 3.61747640e-01 
305 1294.30 7.41132238e+00 4.19781380e-01 
304 1295.81 7.30221791e+00 4.62624942e-01 
303 1297.32 7.23857453e+00 5.33163824e-01 
302 1298.83 7.18512432e+00 5.17355264e-01 
301 1300.34 7.05594910e+00 6.40948978e-01 
300 1301.85 6.93533349e+00 7.37617293e-01 
299 1303.35 6.84429330e+00 8.01365098e-01 
298 1304.86 6.71152671e+00 8.56393866e-01 
297 1306.36 6.67200293e+00 8.76120772e-01 
296 1307.86 6.58307820e+00 9.32189292e-01 
295 1309.36 6.47508719e+00 9.85390810e-01 
294 1310.86 6.27438193e+00 1.14698443e+00 
293 1312.36 6.19423781e+00 1.16282838e+00 
292 1313.86 6.14231224e+00 1.15499370e+00 
291 1315.36 6.09654959e+00 1.21532854e+00 
290 1316.85 6.04011806e+00 1.21609753e+00 
289 1318.34 6.00203649e+00 1.24082743e+00 
288 1319.84 5.84991643e+00 1.35478879e+00 
287 1321.33 5.85717903e+00 1.35758233e+00 
286 1322.82 5.83902007e+00 1.29864190e+00 
285 1324.30 5.74625805e+00 1.39176094e+00 
284 1325.79 5.51607672e+00 1.52182766e+00 
283 1327.28 5.22756367e+00 1.74274014e+00 
282 1328.76 4.84977903e+00 1.98580076e+00 
281 1330.25 4.69765226e+00 2.08849982e+00 
280 1331.73 4.19939442e+00 2.84417000e+00 
279 1333.21 4.77691640e+00 1.88152711e+00 
278 1334.69 4.57338561e+00 2.21938159e+00 
277 1336.17 4.78779689e+00 1.79978068e+00 
276 1337.65 4.67693620e+00 1.82737426e+00 
275 1339.12 4.60076909e+00 1.84617112e+00 
274 1340.60 3.94713538e+00 2.72168270e+00 
273 1342.07 3.97584820e+00 2.38309539e+00 
272 1343.55 3.57352189e+00 2.65999247e+00 
271 1345.02 3.10574311e+00 2.66287867e+00 
270 1346.49 3.00065336e+00 2.33752979e+00 
269 1347.96 2.61251923e+00 2.41712581e+00 
268 1349.43 2.36292141e+00 2.20904632e+00 
267 1350.89 2.12254177e+00 2.05248984e+00 
266 1352.36 1.83570611e+00 1.78269153e+00 
265 1353.82 1.61408713e+00 1.67176176e+00 
264 1355.29 1.39796249e+00 1.47698547e+00 
263 1356.75 1.24209988e+00 1.46658571e+00 
262 1358.21 1.10894065e+00 1.24370339e+00 
261 1359.67 9.40312869e-01 1.10602061e+00 
260 1361.13 8.77099567e-01 1.03075382e+00 
259 1362.59 8.41186596e-01 1.03582760e+00 
258 1364.04 9.35507634e-01 1.08214731e+00 
257 1365.50 8.84196454e-01 1.12146440e+00 
256 1366.95 9.65346165e-01 1.02818162e+00 
255 1368.41 8.48172745e-01 1.04268367e+00 
254 1369.86 8.84788156e-01 1.05985889e+00 
253 1371.31 9.75200320e-01 1.16274679e+00 
252 1372.76 1.11967007e+00 1.06243308e+00 
251 1374.21 1.16934485e+00 1.18991197e+00 
250 1375.65 1.17722277e+00 1.11065741e+00 
249 1377.10 1.05369160e+00 1.01238193e+00 
248 1378.55 9.02808040e-01 8.27750691e-01 
247 1379.99 6.78802785e-01 7.79138737e-01 
246 1381.43 6.45945533e-01 6.17327013e-01 
245 1382.87 6.05924611e-01 6.92699271e-01 
244 1384.32 6.99836907e-01 7.63810720e-01 
243 1385.75 8.07677944e-01 9.14750922e-01 
242 1387.19 1.01426715e+00 1.00660283e+00 
241 1388.63 1.08400878e+00 9.92780658e-01 
240 1390.07 1.09882590e+00 1.11265045e+00 
239 1391.50 1.06459273e+00 1.09251141e+00 
238 1392.94 9.74074958e-01 8.10354645e-01 
237 1394.37 9.17868390e-01 9.95224181e-01 
236 1395.80 1.05532425e+00 1.03875711e+00 
235 1397.23 9.84645995e-01 1.04430711e+00 
234 1398.66 1.16007797e+00 9.26817587e-01 
233 1400.09 1.14869687e+00 1.14338510e+00 
232 1401.52 1.04196123e+00 1.12493085e+00 
231 1402.94 1.17070111e+00 1.18312101e+00 
230 1404.37 1.27709896e+00 1.13751468e+00 
229 1405.79 1.19502860e+00 1.20325504e+00 
228 1407.22 1.27148742e+00 1.14982991e+00 
227 1408.64 1.30570853e+00 1.33497705e+00 
226 1410.06 1.48154928e+00 1.28843250e+00 
225 1411.48 1.43267005e+00 1.41130369e+00 
224 1412.90 1.63149209e+00 1.31554960e+00 
223 1414.32 1.65409404e+00 1.47928291e+00 
222 1415.73 1.61200045e+00 1.48947455e+00 
221 1417.15 1.60770636e+00 1.57737629e+00 
220 1418.56 1.71511092e+00 1.57091337e+00 
219 1419.98 1.66335535e+00 1.60169509e+00 
218 1421.39 1.77456374e+00 1.59528428e+00 
217 1422.80 1.87603724e+00 1.69533121e+00 
216 1424.21 1.93208867e+00 1.67049168e+00 
215 1425.62 1.87365357e+00 1.74961074e+00 
214 1427.03 2.00955773e+00 1.68641697e+00 
213 1428.44 1.94231310e+00 1.64738975e+00 
212 1429.84 1.89317435e+00 1.55330686e+00 
211 1431.25 1.83597785e+00 1.66581002e+00 
210 1432.65 1.87482359e+00 1.58437043e+00 
209 1434.06 1.90272169e+00 1.57874802e+00 
208 1435.46 1.89238193e+00 1.73893017e+00 
207 1436.86 1.93449307e+00 1.73105714e+00 
206 1438.26 1.95252561e+00 1.73809683e+00 
205 1439.66 2.01080526e+00 1.69237003e+00 
204 1441.05 2.13960088e+00 1.68317361e+00 
203 1442.45 2.06831866e+00 1.67553887e+00 
202 1443.85 2.04770904e+00 1.73431880e+00 
201 1445.24 2.15209550e+00 1.72930066e+00 
200 1446.64 2.18120604e+00 1.73906296e+00 
199 1448.03 2.08053662e+00 1.81783059e+00 
198 1449.42 2.23971909e+00 1.68887860e+00 
197 1450.81 2.22709831e+00 1.76064141e+00 
196 1452.20 2.26539212e+00 1.77853600e+00 
195 1453.59 2.48895454e+00 1.75472775e+00 
194 1454.97 2.53581561e+00 1.99705274e+00 
193 1456.36 2.64762892e+00 1.85020786e+00 
192 1457.75 2.56892177e+00 2.04849733e+00 
191 1459.13 2.56060882e+00 2.00110386e+00 
190 1460.51 2.50331670e+00 2.01512782e+00 
189 1461.90 2.51766929e+00 1.77666081e+00 
188 1463.28 2.36741766e+00 1.92703892e+00 
187 1464.66 2.32871435e+00 1.82897047e+00 
186 1466.04 2.29139176e+00 1.90436911e+00 
185 1467.41 2.22378645e+00 1.78018901e+00 
184 1468.79 2.20916535e+00 1.71450590e+00 
183 1470.17 2.12661432e+00 1.80312660e+00 
182 1471.54 2.26366598e+00 1.66104765e+00 
181 1472.92 2.41018211e+00 1.56694863e+00 
180 1474.29 2.34710606e+00 1.86325875e+00 
179 1475.66 2.34414622e+00 1.88157575e+00 
178 1477.03 2.33420145e+00 1.79130748e+00 
177 1478.40 2.23833105e+00 1.87356699e+00 
176 1479.77 2.31274488e+00 1.86691542e+00 
175 1481.14 2.32700722e+00 1.87952763e+00 
174 1482.51 2.67463652e+00 1.45804741e+00 
173 1483.87 2.66796540e+00 1.43706748e+00 
172 1485.24 2.39761288e+00 1.85469774e+00 
171 1486.60 2.37904441e+00 1.83320031e+00 
170 1487.96 2.75339003e+00 1.34118225e+00 
169 1489.32 2.75704548e+00 1.38716986e+00 
168 1490.68 3.00741169e+00 1.22074865e+00 
167 1492.04 3.11854442e+00 1.04018358e+00 
166 1493.40 3.05613413e+00 1.21645789e+00 
165 1494.76 3.21024383e+00 9.40966184e-01 
164 1496.12 3.29806659e+00 8.53511847e-01 
163 1497.47 3.32941960e+00 7.62608814e-01 
162 1498.83 3.46683246e+00 6.53987179e-01 
161 1500.18 3.35016475e+00 6.33580216e-01 
160 1501.53 3.24775284e+00 6.89142295e-01 
159 1502.89 3.15921855e+00 6.60608268e-01 
158 1504.24 3.19185183e+00 6.49198868e-01 
157 1505.59 3.22748248e+00 6.48895249e-01 
156 1506.93 3.41087490e+00 5.54143987e-01 
155 1508.28 3.49162481e+00 4.87212111e-01 
154 1509.63 3.53373174e+00 4.79709761e-01 
153 1510.97 3.51389804e+00 4.42928487e-01 
152 1512.32 3.58079926e+00 4.08526361e-01 
151 1513.66 3.51512989e+00 3.94497627e-01 
150 1515.00 3.54532475e+00 4.09028249e-01 
149 1516.34 3.51847193e+00 3.79407881e-01 
148 1517.69 3.53797256e+00 3.67342971e-01 
147 1519.02 3.50611866e+00 3.20366077e-01 
146 1520.36 3.55680764e+00 2.54955005e-01 
145 1521.70 3.54746599e+00 1.98532233e-01 
144 1523.04 3.60292784e+00 1.78311228e-01 
143 1524.37 3.55854213e+00 1.75049778e-01 
142 1525.71 3.59138216e+00 1.80263283e-01 
141 1527.04 3.53682174e+00 1.72012086e-01 
140 1528.37 3.56813622e+00 1.56913633e-01 
139 1529.70 3.52071129e+00 1.18343341e-01 
138 1531.03 3.56647560e+00 1.03421075e-01 
137 1532.36 3.52801596e+00 8.86916219e-02 
136 1533.69 3.56974469e+00 7.74640361e-02 
135 1535.02 3.51597814e+00 6.76801191e-02 
134 1536.34 3.55312220e+00 6.57490705e-02 
133 1537.67 3.51261172e+00 4.90559264e-02 
132 1538.99 3.55225477e+00 4.11064381e-02 
131 1540.31 3.49922890e+00 3.56117422e-02 
130 1541.64 3.52727730e+00 4.55225375e-02 
129 1542.96 3.49363422e+00 4.39666459e-02 
128 1544.28 3.52647864e+00 3.82170350e-02 
127 1545.60 3.46224300e+00 2.04688871e-02 
126 1546.91 3.50508869e+00 1.05727504e-02 
125 1548.23 3.41866055e+00 1.60710242e-02 
124 1549.55 3.45823549e+00 1.22780931e-02 
123 1550.86 3.38906046e+00 9.79707262e-03 
122 1552.18 3.40518368e+00 9.70125153e-03 
121 1553.49 3.33912553e+00 8.43229578e-03 
120 1554.80 3.37721344e+00 6.12886126e-03 
119 1556.11 3.30980535e+00 1.20799850e-03 
118 1557.42 3.35092879e+00 7.44653793e-03 
117 1558.73 3.27962454e+00 1.92083898e-03 
116 1560.04 3.29906255e+00 4.12758348e-03 
115 1561.34 3.22054315e+00 3.04200854e-03 
114 1562.65 3.26109411e+00 9.12301770e-03 
113 1563.95 3.18053471e+00 9.87738506e-03 
112 1565.26 3.22889944e+00 1.37048425e-02 
111 1566.56 3.12301843e+00 2.46532127e-02 
110 1567.86 3.13312379e+00 4.46096950e-02 
109 1569.16 3.02992594e+00 6.33478625e-02 
108 1570.46 3.00824855e+00 7.86201074e-02 
107 1571.76 2.91897823e+00 7.35075057e-02 
106 1573.05 2.90572736e+00 6.72257948e-02 
105 1574.35 2.82039726e+00 4.84986417e-02 
104 1575.64 2.82930341e+00 6.12828936e-02 
103 1576.94 2.80536218e+00 5.80247110e-02 
102 1578.23 2.86071842e+00 6.59129429e-02 
101 1579.52 2.83598560e+00 7.10784364e-02 
100 1580.81 2.90177947e+00 5.83913468e-02 
99 1582.10 2.85916811e+00 3.50908384e-02 
98 1583.39 2.92073686e+00 3.01148216e-02 
97 1584.68 2.86364912e+00 1.32478817e-02 
96 1585.97 2.86334589e+00 8.01567772e-03 
95 1587.25 2.76685448e+00 7.67310086e-03 
94 1588.54 2.77333187e+00 7.33792419e-03 
93 1589.82 2.70899085e+00 1.01626348e-02 
92 1591.10 2.78887467e+00 7.53897258e-03 
91 1592.38 2.74460376e+00 5.99409922e-03 
90 1593.66 2.79690627e+00 8.69278191e-03 
89 1594.94 2.73151860e+00 8.48782482e-03 
88 1596.22 2.74692570e+00 2.90765258e-02 
87 1597.50 2.66520288e+00 4.32337012e-02 
86 1598.77 2.67094473e+00 6.96337106e-02 
85 1600.05 2.58354002e+00 7.77163540e-02 
84 1601.32 2.60213772e+00 8.81064651e-02 
83 1602.59 2.53556199e+00 7.19880723e-02 
82 1603.86 2.58335655e+00 8.15474293e-02 
81 1605.13 2.49063509e+00 6.77070951e-02 
80 1606.40 2.54409529e+00 6.44708183e-02 
79 1607.67 2.46380051e+00 5.88153826e-02 
78 1608.94 2.50143562e+00 6.64202171e-02 
77 1610.20 2.45905981e+00 4.60424164e-02 
76 1611.47 2.51704800e+00 4.38407054e-02 
75 1612.73 2.47078568e+00 2.70767216e-02 
74 1614.00 2.51477274e+00 2.19337624e-02 
73 1615.26 2.44512938e+00 2.52887184e-02 
72 1616.52 2.47038841e+00 1.82036041e-02 
71 1617.78 2.37468197e+00 1.63675490e-02 
70 1619.03 2.40464254e+00 1.34525571e-02 
69 1620.29 2.35220198e+00 1.11596028e-02 
68 1621.55 2.40054525e+00 1.26089390e-02 
67 1622.80 2.34722246e+00 7.84346795e-03 
66 1624.06 2.40923523e+00 9.19012069e-03 
65 1625.31 2.31979370e+00 6.83626815e-03 
64 1626.56 2.37125029e+00 6.51446521e-03 
63 1627.81 2.28427062e+00 1.00776192e-02 
62 1629.06 2.30115203e+00 8.55514901e-03 
61 1630.31 2.22286978e+00 5.13728970e-03 
