% C0 (TOA Count Rate, /ms) for 4STAR NIR spectrometer (512 channels) derived from (SEE Original files for sources) and recorded on 2018-04-12 18:07:04.
% Langley at MLO and airborne Data outside 2.0x the STD of 501 nm Langley residuals were screened out. 
% Including high Altitude rate spectra, matched to splined stratospheric AOD measured at MLO.
% Averages of c0 from multiple days including: , MLO -av-g-, infl-ig-ht, infl-ig-ht, high- a-lt, high- a-lt, Ames- r-oo. See the list of files below
% 20170605_NIR_C0_refined_Langley_MLO_May2017_averages.dat
% 20170807_NIR_C0_refined_langley_4STARpm.dat
% 20170807_NIR_C0_refined_langley_4STAR_subset_pm.dat
% 20170809_NIR_C0_refined_high_alt_low_m_frompolyfit.dat
% 20170815_NIR_C0_refined_high_alt_low_m_frompolyfit.dat
% 20171205_NIR_C0_refined_langley_4STARpm_Ames_roof_.dat
Pix Wavelength C0 C0err
511 949.79 4.63933504e+00 8.48990604e-01 
510 949.79 5.01455831e+00 4.41670096e-01 
509 951.68 5.38336175e+00 4.30485424e-01 
508 953.57 5.44118084e+00 4.19061680e-01 
507 955.46 5.88280663e+00 4.22595824e-01 
506 957.34 5.99000276e+00 4.08753563e-01 
505 959.22 6.46184865e+00 3.73981181e-01 
504 961.10 6.56484617e+00 3.35349846e-01 
503 962.98 7.01147262e+00 2.82087794e-01 
502 964.85 7.03421085e+00 2.25769092e-01 
501 966.72 7.55177251e+00 1.69822983e-01 
500 968.59 7.61497630e+00 1.23757583e-01 
499 970.45 8.01891865e+00 1.09016896e-01 
498 972.32 7.96624882e+00 1.28573685e-01 
497 974.18 8.30325495e+00 1.40640917e-01 
496 976.04 8.23702792e+00 1.44043870e-01 
495 977.89 8.58420250e+00 1.19373104e-01 
494 979.74 8.51263701e+00 8.61575461e-02 
493 981.59 8.81056600e+00 6.76037739e-02 
492 983.44 8.70401427e+00 5.38331938e-02 
491 985.29 8.96696581e+00 5.80409509e-02 
490 987.13 8.77191257e+00 5.48469427e-02 
489 988.97 9.02073042e+00 5.61334057e-02 
488 990.81 8.83232469e+00 5.99577983e-02 
487 992.65 9.00867014e+00 6.70107882e-02 
486 994.48 8.82061479e+00 5.79062186e-02 
485 996.31 8.96084235e+00 5.89893373e-02 
484 998.14 8.71065526e+00 5.12617188e-02 
483 999.97 8.86706718e+00 5.07080965e-02 
482 1001.79 8.58005768e+00 5.36007037e-02 
481 1003.62 8.66204948e+00 5.49572072e-02 
480 1005.44 8.44981633e+00 5.27351375e-02 
479 1007.25 8.69676730e+00 5.46458546e-02 
478 1009.07 8.51249639e+00 5.15012351e-02 
477 1010.88 8.66995581e+00 5.76567427e-02 
476 1012.69 8.41663101e+00 5.34935898e-02 
475 1014.50 8.53729654e+00 5.66245798e-02 
474 1016.31 8.32648230e+00 5.47709073e-02 
473 1018.11 8.47833159e+00 5.37686410e-02 
472 1019.91 8.24248338e+00 5.18172695e-02 
471 1021.71 8.39873955e+00 5.09423934e-02 
470 1023.51 8.17640776e+00 5.04545987e-02 
469 1025.30 8.34271966e+00 5.67580542e-02 
468 1027.09 8.22611766e+00 6.51144366e-02 
467 1028.88 8.39231152e+00 6.65391876e-02 
466 1030.67 8.22771536e+00 6.80916447e-02 
465 1032.46 8.39565288e+00 7.59268585e-02 
464 1034.24 8.23943716e+00 7.56819208e-02 
463 1036.02 8.42293941e+00 7.58436428e-02 
462 1037.80 8.31336125e+00 6.68559670e-02 
461 1039.58 8.51366268e+00 7.50952125e-02 
460 1041.35 8.38026664e+00 6.84445694e-02 
459 1043.12 8.54169477e+00 7.85420502e-02 
458 1044.89 8.45687199e+00 7.62319076e-02 
457 1046.66 8.66379484e+00 7.78392738e-02 
456 1048.43 8.58722692e+00 7.93874631e-02 
455 1050.19 8.81208282e+00 7.80005626e-02 
454 1051.95 8.65851603e+00 6.96209322e-02 
453 1053.71 8.89581913e+00 7.44633693e-02 
452 1055.47 8.72511800e+00 7.68291562e-02 
451 1057.23 8.85952245e+00 7.47273959e-02 
450 1058.98 8.71779458e+00 7.13505143e-02 
449 1060.73 8.90556283e+00 7.80389468e-02 
448 1062.48 8.71346665e+00 8.07682699e-02 
447 1064.23 8.85293214e+00 8.05916010e-02 
446 1065.97 8.54978824e+00 7.95917255e-02 
445 1067.71 8.58882793e+00 7.05864104e-02 
444 1069.46 8.39209103e+00 6.35575113e-02 
443 1071.19 8.50318755e+00 7.14326197e-02 
442 1072.93 8.33642610e+00 6.90877648e-02 
441 1074.67 8.43446708e+00 7.05192001e-02 
440 1076.40 8.24484584e+00 6.18515140e-02 
439 1078.13 8.29051079e+00 5.69605246e-02 
438 1079.86 8.05737625e+00 5.58989798e-02 
437 1081.58 8.14038057e+00 5.43535524e-02 
436 1083.31 8.01540744e+00 5.07874291e-02 
435 1085.03 8.17752565e+00 6.02624146e-02 
434 1086.75 8.11521358e+00 5.40138247e-02 
433 1088.47 8.26399387e+00 5.38985953e-02 
432 1090.19 8.15252357e+00 5.17443355e-02 
431 1091.90 8.25804591e+00 5.05028466e-02 
430 1093.61 8.11808116e+00 4.73112648e-02 
429 1095.33 8.31677045e+00 5.38592147e-02 
428 1097.03 8.34368598e+00 6.24586475e-02 
427 1098.74 8.57059801e+00 7.69605048e-02 
426 1100.45 8.55585937e+00 9.88883046e-02 
425 1102.15 8.83130150e+00 1.11237578e-01 
424 1103.85 8.80843888e+00 1.25646004e-01 
423 1105.55 9.02176807e+00 1.66111641e-01 
422 1107.25 8.93539096e+00 2.32464147e-01 
421 1108.94 9.04449511e+00 3.24469070e-01 
420 1110.64 8.78112348e+00 4.75115769e-01 
419 1112.33 8.72015469e+00 7.10475671e-01 
418 1114.02 8.26648218e+00 9.66617911e-01 
417 1115.70 8.15567391e+00 1.13580704e+00 
416 1117.39 7.86512249e+00 1.22482126e+00 
415 1119.07 7.82345785e+00 1.31228742e+00 
414 1120.76 7.67660205e+00 1.33086484e+00 
413 1122.44 7.69384038e+00 1.40919916e+00 
412 1124.12 7.61962667e+00 1.37631856e+00 
411 1125.79 7.81903610e+00 1.32028497e+00 
410 1127.47 7.93123694e+00 1.23641017e+00 
409 1129.14 8.27330380e+00 1.07837708e+00 
408 1130.81 7.89242053e+00 1.22391178e+00 
407 1132.48 7.78210167e+00 1.33046243e+00 
406 1134.15 7.65225119e+00 1.30182634e+00 
405 1135.81 8.01242847e+00 1.12361126e+00 
404 1137.48 8.52127816e+00 7.84322227e-01 
403 1139.14 8.80115556e+00 6.88065678e-01 
402 1140.80 8.51698164e+00 7.96106797e-01 
401 1142.46 8.41726085e+00 9.78108768e-01 
400 1144.12 8.11321863e+00 1.13597948e+00 
399 1145.77 8.12680748e+00 1.20198022e+00 
398 1147.43 8.12311857e+00 1.11202739e+00 
397 1149.08 8.35990656e+00 9.62775460e-01 
396 1150.73 8.33922425e+00 9.03708159e-01 
395 1152.38 8.60412355e+00 8.07053714e-01 
394 1154.02 8.59354669e+00 7.12143019e-01 
393 1155.67 8.85641925e+00 6.01224021e-01 
392 1157.31 8.77158718e+00 5.00645509e-01 
391 1158.95 8.89938574e+00 4.23160726e-01 
390 1160.59 8.86818346e+00 3.29969960e-01 
389 1162.23 9.03898131e+00 2.64126554e-01 
388 1163.87 8.96871436e+00 2.10065187e-01 
387 1165.50 9.05795786e+00 1.86623663e-01 
386 1167.13 8.96079336e+00 1.58922204e-01 
385 1168.76 9.06709194e+00 1.13869292e-01 
384 1170.39 8.92862183e+00 1.33830075e-01 
383 1172.02 8.93071723e+00 1.41964651e-01 
382 1173.65 8.75842908e+00 1.59474562e-01 
381 1175.27 8.74866004e+00 1.53965757e-01 
380 1176.90 8.64354112e+00 1.26219990e-01 
379 1178.52 8.60160288e+00 1.73457606e-01 
378 1180.14 8.39453440e+00 1.68533313e-01 
377 1181.75 8.37187571e+00 1.68466840e-01 
376 1183.37 8.17972016e+00 1.47317707e-01 
375 1184.99 8.21572469e+00 1.55982920e-01 
374 1186.60 8.10316640e+00 1.44306951e-01 
373 1188.21 8.09044908e+00 1.27563269e-01 
372 1189.82 8.01229578e+00 8.99530739e-02 
371 1191.43 8.20039468e+00 6.20274599e-02 
370 1193.04 8.08654096e+00 5.94988883e-02 
369 1194.64 8.05418720e+00 6.05539928e-02 
368 1196.24 7.86342237e+00 7.43165860e-02 
367 1197.85 7.91103240e+00 9.20637358e-02 
366 1199.45 7.77672429e+00 1.00593686e-01 
365 1201.05 7.85329964e+00 1.15000151e-01 
364 1202.64 7.79302258e+00 1.04036650e-01 
363 1204.24 7.83488415e+00 9.29673150e-02 
362 1205.83 7.75962067e+00 6.79407070e-02 
361 1207.43 7.76465848e+00 5.99847292e-02 
360 1209.02 7.71127151e+00 7.03630063e-02 
359 1210.61 7.84315369e+00 6.35176237e-02 
358 1212.19 7.83305979e+00 4.54510674e-02 
357 1213.78 7.97868345e+00 3.25877607e-02 
356 1215.37 7.90865910e+00 2.26561023e-02 
355 1216.95 7.96905825e+00 2.03071571e-02 
354 1218.53 7.93065116e+00 2.31656604e-02 
353 1220.11 8.00798096e+00 2.15712800e-02 
352 1221.69 7.97362322e+00 1.73887065e-02 
351 1223.27 8.01820317e+00 1.45291560e-02 
350 1224.84 8.00451283e+00 1.26040040e-02 
349 1226.42 8.05871024e+00 2.09738887e-02 
348 1227.99 8.03877998e+00 2.56551779e-02 
347 1229.56 8.16697205e+00 2.94838835e-02 
346 1231.13 8.09521373e+00 3.12277013e-02 
345 1232.70 8.15966874e+00 2.96607649e-02 
344 1234.27 8.10577281e+00 3.32077169e-02 
343 1235.84 8.10891549e+00 4.54926564e-02 
342 1237.40 8.04875387e+00 3.91430788e-02 
341 1238.96 8.03880941e+00 3.88327490e-02 
340 1240.52 7.88977388e+00 3.49318739e-02 
339 1242.08 8.01783366e+00 3.80074832e-02 
338 1243.64 7.98748424e+00 3.83416874e-02 
337 1245.20 8.02887694e+00 4.55401209e-02 
336 1246.75 7.98663785e+00 4.71407762e-02 
335 1248.31 8.04847203e+00 4.54631242e-02 
334 1249.86 7.97362137e+00 4.38221368e-02 
333 1251.41 8.00396307e+00 5.32645607e-02 
332 1252.96 7.92206740e+00 6.26467788e-02 
331 1254.51 7.93692475e+00 7.08619434e-02 
330 1256.06 7.84009288e+00 7.26903889e-02 
329 1257.61 7.79229739e+00 8.80570945e-02 
328 1259.15 7.66056403e+00 1.05679291e-01 
327 1260.69 7.59922161e+00 1.34340867e-01 
326 1262.23 7.46506439e+00 1.64033936e-01 
325 1263.77 7.43031593e+00 1.84069928e-01 
324 1265.31 7.23206978e+00 2.38638776e-01 
323 1266.85 7.24591672e+00 2.51443673e-01 
322 1268.39 7.30640672e+00 2.35273564e-01 
321 1269.92 7.43270336e+00 2.12496249e-01 
320 1271.46 7.61554966e+00 1.32042259e-01 
319 1272.99 7.68676843e+00 1.08122327e-01 
318 1274.52 7.69402434e+00 8.93758983e-02 
317 1276.05 7.77029178e+00 7.88767604e-02 
316 1277.58 7.65603753e+00 6.37116851e-02 
315 1279.10 7.51221423e+00 5.55593388e-02 
314 1280.63 7.46159933e+00 5.18309414e-02 
313 1282.15 7.45457710e+00 6.20147305e-02 
312 1283.68 7.54133548e+00 6.24811347e-02 
311 1285.20 7.71201282e+00 6.35766490e-02 
310 1286.72 7.66105525e+00 5.99259668e-02 
309 1288.24 7.68254044e+00 5.08768486e-02 
308 1289.75 7.58511428e+00 4.66770371e-02 
307 1291.27 7.60567848e+00 4.79848717e-02 
306 1292.78 7.63463814e+00 2.85331882e-02 
305 1294.30 7.65227546e+00 2.09599619e-02 
304 1295.81 7.58147142e+00 2.49749253e-02 
303 1297.32 7.56593578e+00 4.14643303e-02 
302 1298.83 7.50628094e+00 4.35620833e-02 
301 1300.34 7.45113892e+00 6.22606335e-02 
300 1301.85 7.38855239e+00 8.30593591e-02 
299 1303.35 7.34414547e+00 1.05148149e-01 
298 1304.86 7.25891995e+00 1.30442757e-01 
297 1306.36 7.23829562e+00 1.39919023e-01 
296 1307.86 7.18935099e+00 1.62816170e-01 
295 1309.36 7.11145728e+00 1.67949509e-01 
294 1310.86 7.01485712e+00 1.90371715e-01 
293 1312.36 6.93766019e+00 1.86267416e-01 
292 1313.86 6.88126009e+00 1.95409187e-01 
291 1315.36 6.86707914e+00 2.06610988e-01 
290 1316.85 6.81360634e+00 2.33245019e-01 
289 1318.34 6.79449809e+00 2.49312430e-01 
288 1319.84 6.73053017e+00 2.86855720e-01 
287 1321.33 6.73904460e+00 2.82377878e-01 
286 1322.82 6.68571352e+00 2.47373553e-01 
285 1324.30 6.65063506e+00 2.70691623e-01 
284 1325.79 6.50920768e+00 3.18924241e-01 
283 1327.28 6.36508769e+00 3.86854264e-01 
282 1328.76 6.15519606e+00 4.93026211e-01 
281 1330.25 6.07103562e+00 5.35585704e-01 
280 1331.73 6.01439460e+00 5.25309574e-01 
279 1333.21 6.01944787e+00 5.19791403e-01 
278 1334.69 6.01116727e+00 4.80106923e-01 
277 1336.17 5.97115016e+00 4.56859623e-01 
276 1337.65 5.88673348e+00 4.94796166e-01 
275 1339.12 5.81721598e+00 4.78464568e-01 
274 1340.60 5.70071870e+00 5.59541576e-01 
273 1342.07 5.54814255e+00 6.82239306e-01 
272 1343.55 5.34662827e+00 7.71640481e-01 
271 1345.02 4.92475803e+00 9.96877945e-01 
270 1346.49 4.64849624e+00 1.12927839e+00 
269 1347.96 4.35123244e+00 1.26867143e+00 
268 1349.43 3.97047724e+00 1.44696122e+00 
267 1350.89 3.65792571e+00 1.53060859e+00 
266 1352.36 3.18257378e+00 1.69275601e+00 
265 1353.82 2.88498841e+00 1.73349568e+00 
264 1355.29 2.57380773e+00 1.76797157e+00 
263 1356.75 2.43641862e+00 1.68484227e+00 
262 1358.21 2.18195065e+00 1.59586421e+00 
261 1359.67 1.96570181e+00 1.51824568e+00 
260 1361.13 1.84763270e+00 1.48324572e+00 
259 1362.59 1.80876780e+00 1.44354376e+00 
258 1364.04 1.90467935e+00 1.45666723e+00 
257 1365.50 1.89199570e+00 1.45761277e+00 
256 1366.95 1.90064954e+00 1.43734713e+00 
255 1368.41 1.81315496e+00 1.44189465e+00 
254 1369.86 1.82839533e+00 1.43570667e+00 
253 1371.31 1.95136790e+00 1.41621889e+00 
252 1372.76 1.98834922e+00 1.34407416e+00 
251 1374.21 2.05479507e+00 1.32043220e+00 
250 1375.65 1.98480903e+00 1.24953463e+00 
249 1377.10 1.79786805e+00 1.13239189e+00 
248 1378.55 1.54862865e+00 1.02126401e+00 
247 1379.99 1.32823070e+00 8.98169595e-01 
246 1381.43 1.20085511e+00 8.84717652e-01 
245 1382.87 1.21818779e+00 9.36661277e-01 
244 1384.32 1.34400591e+00 9.88043323e-01 
243 1385.75 1.52852440e+00 1.02238427e+00 
242 1387.19 1.76018405e+00 1.03597073e+00 
241 1388.63 1.79700253e+00 1.09288230e+00 
240 1390.07 1.89250836e+00 1.02379764e+00 
239 1391.50 1.88123112e+00 1.01611921e+00 
238 1392.94 1.63071773e+00 1.03282636e+00 
237 1394.37 1.70114862e+00 1.05085982e+00 
236 1395.80 1.86498710e+00 1.06898582e+00 
235 1397.23 1.81697156e+00 1.04491678e+00 
234 1398.66 1.87891098e+00 1.13001752e+00 
233 1400.09 2.06226372e+00 1.05222764e+00 
232 1401.52 1.94945208e+00 1.11508747e+00 
231 1402.94 2.10703314e+00 1.11674633e+00 
230 1404.37 2.11615616e+00 1.26192608e+00 
229 1405.79 2.14136412e+00 1.11797551e+00 
228 1407.22 2.11849782e+00 1.27329361e+00 
227 1408.64 2.34461040e+00 1.12445325e+00 
226 1410.06 2.40498617e+00 1.27116794e+00 
225 1411.48 2.50410610e+00 1.14166332e+00 
224 1412.90 2.54805859e+00 1.29310302e+00 
223 1414.32 2.73512899e+00 1.10713746e+00 
222 1415.73 2.74528867e+00 1.07959659e+00 
221 1417.15 2.79633706e+00 1.07631031e+00 
220 1418.56 2.90812281e+00 1.04283756e+00 
219 1419.98 2.87394309e+00 1.03134468e+00 
218 1421.39 2.97987248e+00 9.82695261e-01 
217 1422.80 3.12670435e+00 9.00818814e-01 
216 1424.21 3.16728881e+00 9.02950598e-01 
215 1425.62 3.13949221e+00 9.41063996e-01 
214 1427.03 3.21741552e+00 9.08914107e-01 
213 1428.44 3.08255272e+00 8.87690278e-01 
212 1429.84 2.94126824e+00 8.83082734e-01 
211 1431.25 2.92945076e+00 8.17253510e-01 
210 1432.65 2.91831522e+00 8.07721493e-01 
209 1434.06 2.91943989e+00 8.90607368e-01 
208 1435.46 3.06429451e+00 8.14408647e-01 
207 1436.86 3.10785728e+00 7.62372962e-01 
206 1438.26 3.12785966e+00 7.66780161e-01 
205 1439.66 3.14322625e+00 7.42837890e-01 
204 1441.05 3.27303774e+00 7.07721168e-01 
203 1442.45 3.20135317e+00 7.26653770e-01 
202 1443.85 3.25215605e+00 7.08016202e-01 
201 1445.24 3.33443247e+00 6.86196706e-01 
200 1446.64 3.39012747e+00 6.87785700e-01 
199 1448.03 3.33816720e+00 7.30567000e-01 
198 1449.42 3.41930382e+00 7.26618687e-01 
197 1450.81 3.45098066e+00 6.67640669e-01 
196 1452.20 3.48767151e+00 6.37375499e-01 
195 1453.59 3.67127424e+00 5.06544030e-01 
194 1454.97 3.85096357e+00 4.17329255e-01 
193 1456.36 3.87463656e+00 3.83098504e-01 
192 1457.75 3.91097735e+00 3.90495049e-01 
191 1459.13 3.87047782e+00 3.96180555e-01 
190 1460.51 3.82925140e+00 4.32987406e-01 
189 1461.90 3.69872094e+00 4.68846477e-01 
188 1463.28 3.64937835e+00 5.23643319e-01 
187 1464.66 3.55241588e+00 5.64085120e-01 
186 1466.04 3.57074329e+00 5.77811797e-01 
185 1467.41 3.44200671e+00 6.29857971e-01 
184 1468.79 3.39803833e+00 6.76536274e-01 
183 1470.17 3.36467011e+00 6.61797088e-01 
182 1471.54 3.38836558e+00 6.65032805e-01 
181 1472.92 3.45811693e+00 5.93510016e-01 
180 1474.29 3.56788107e+00 5.47649334e-01 
179 1475.66 3.57054796e+00 5.04292481e-01 
178 1477.03 3.52078850e+00 5.30456957e-01 
177 1478.40 3.48289394e+00 5.47882567e-01 
176 1479.77 3.54725722e+00 5.20479592e-01 
175 1481.14 3.55840571e+00 4.66153336e-01 
174 1482.51 3.65328828e+00 4.28712136e-01 
173 1483.87 3.63021836e+00 4.00723419e-01 
172 1485.24 3.60332604e+00 3.84499261e-01 
171 1486.60 3.55811726e+00 3.66243916e-01 
170 1487.96 3.62840080e+00 3.35344738e-01 
169 1489.32 3.64104756e+00 2.80361017e-01 
168 1490.68 3.79121989e+00 2.26282605e-01 
167 1492.04 3.79109494e+00 1.99603793e-01 
166 1493.40 3.83576535e+00 1.99061998e-01 
165 1494.76 3.81655012e+00 1.84839727e-01 
164 1496.12 3.84805499e+00 1.67728809e-01 
163 1497.47 3.81333668e+00 1.40277806e-01 
162 1498.83 3.88638043e+00 1.06786290e-01 
161 1500.18 3.75296212e+00 9.78635222e-02 
160 1501.53 3.68990009e+00 1.16671910e-01 
159 1502.89 3.58253161e+00 1.21802447e-01 
158 1504.24 3.60795226e+00 1.17623618e-01 
157 1505.59 3.63693066e+00 1.22986814e-01 
156 1506.93 3.75858162e+00 9.83773183e-02 
155 1508.28 3.80069390e+00 7.33178427e-02 
154 1509.63 3.84186807e+00 6.55215548e-02 
153 1510.97 3.79383710e+00 4.95081483e-02 
152 1512.32 3.84467701e+00 3.83808078e-02 
151 1513.66 3.76591151e+00 3.65334034e-02 
150 1515.00 3.80787048e+00 4.08807551e-02 
149 1516.34 3.76224345e+00 3.44510426e-02 
148 1517.69 3.77950535e+00 3.25866421e-02 
147 1519.02 3.71703682e+00 2.55959889e-02 
146 1520.36 3.73164513e+00 2.48050246e-02 
145 1521.70 3.67949745e+00 1.69897725e-02 
144 1523.04 3.72660089e+00 1.97997120e-02 
143 1524.37 3.67896706e+00 2.05835249e-02 
142 1525.71 3.71709322e+00 2.64853806e-02 
141 1527.04 3.65317359e+00 2.68234953e-02 
140 1528.37 3.67812455e+00 3.27610401e-02 
139 1529.70 3.60459409e+00 3.22652209e-02 
138 1531.03 3.64168539e+00 3.33586618e-02 
137 1532.36 3.58728974e+00 2.75792595e-02 
136 1533.69 3.62903696e+00 2.66104810e-02 
135 1535.02 3.56427699e+00 2.28859198e-02 
134 1536.34 3.60088968e+00 1.97995064e-02 
133 1537.67 3.54594184e+00 1.25000502e-02 
132 1538.99 3.58047410e+00 1.26310980e-02 
131 1540.31 3.51745488e+00 1.04474475e-02 
130 1541.64 3.55921868e+00 1.30209819e-02 
129 1542.96 3.52392415e+00 1.12393957e-02 
128 1544.28 3.56021358e+00 1.07241914e-02 
127 1545.60 3.48123260e+00 8.57274580e-03 
126 1546.91 3.51892446e+00 1.18635460e-02 
125 1548.23 3.43491156e+00 1.18140974e-02 
124 1549.55 3.47444979e+00 1.43945253e-02 
123 1550.86 3.40288125e+00 1.45387771e-02 
122 1552.18 3.42660907e+00 2.13751980e-02 
121 1553.49 3.35925633e+00 2.84877844e-02 
120 1554.80 3.39234867e+00 2.61554973e-02 
119 1556.11 3.31948584e+00 1.62668185e-02 
118 1557.42 3.35705293e+00 1.02327396e-02 
117 1558.73 3.28896602e+00 1.13108685e-02 
116 1560.04 3.31159031e+00 1.24890938e-02 
115 1561.34 3.23087025e+00 1.31087220e-02 
114 1562.65 3.27780232e+00 1.49063369e-02 
113 1563.95 3.19626881e+00 1.54847245e-02 
112 1565.26 3.24595199e+00 1.98300650e-02 
111 1566.56 3.13293624e+00 1.59808387e-02 
110 1567.86 3.14711015e+00 1.66808861e-02 
109 1569.16 3.04004663e+00 3.07391112e-02 
108 1570.46 3.02304732e+00 3.71039049e-02 
107 1571.76 2.92520261e+00 4.07992127e-02 
106 1573.05 2.90999034e+00 4.07828459e-02 
105 1574.35 2.81663281e+00 3.59596400e-02 
104 1575.64 2.84167782e+00 3.18654955e-02 
103 1576.94 2.81308470e+00 3.22533280e-02 
102 1578.23 2.87586634e+00 3.22281696e-02 
101 1579.52 2.85426661e+00 3.19638733e-02 
100 1580.81 2.92304507e+00 2.51530654e-02 
99 1582.10 2.86886599e+00 1.87909280e-02 
98 1583.39 2.93472691e+00 1.64352862e-02 
97 1584.68 2.86635871e+00 1.73301247e-02 
96 1585.97 2.86979502e+00 1.37868914e-02 
95 1587.25 2.77375466e+00 1.50401456e-02 
94 1588.54 2.78240672e+00 1.02282835e-02 
93 1589.82 2.71552990e+00 9.98161131e-03 
92 1591.10 2.80035061e+00 7.84875567e-03 
91 1592.38 2.75229106e+00 6.28302906e-03 
90 1593.66 2.81002571e+00 6.94086099e-03 
89 1594.94 2.74018411e+00 7.52172707e-03 
88 1596.22 2.76697720e+00 1.58981525e-02 
87 1597.50 2.68294793e+00 2.42833035e-02 
86 1598.77 2.69345901e+00 3.45256370e-02 
85 1600.05 2.60188412e+00 4.28203200e-02 
84 1601.32 2.62222159e+00 4.50747728e-02 
83 1602.59 2.54388103e+00 4.62166954e-02 
82 1603.86 2.59969923e+00 4.14627164e-02 
81 1605.13 2.50153054e+00 3.88307518e-02 
80 1606.40 2.55414558e+00 3.85919808e-02 
79 1607.67 2.46353157e+00 4.16739412e-02 
78 1608.94 2.50415100e+00 4.53781229e-02 
77 1610.20 2.45416050e+00 3.97493631e-02 
76 1611.47 2.52050823e+00 3.20732083e-02 
75 1612.73 2.46859558e+00 3.00985387e-02 
74 1614.00 2.51367661e+00 1.87424171e-02 
73 1615.26 2.44365083e+00 1.56693971e-02 
72 1616.52 2.46410787e+00 1.29477246e-02 
71 1617.78 2.36796678e+00 1.15716933e-02 
70 1619.03 2.40448528e+00 8.33395566e-03 
69 1620.29 2.34459084e+00 8.08953041e-03 
68 1621.55 2.40362754e+00 6.11433597e-03 
67 1622.80 2.34547705e+00 8.73879837e-03 
66 1624.06 2.41136542e+00 5.84075328e-03 
