% C0 (TOA Count Rate, /ms) for 4STAR VIS spectrometer (1044 channels) derived from (SEE Original files for sources) and recorded on 2017-08-24 16:31:52.
% Langley at MLO and airborne Data outside 2.0x the STD of 501 nm Langley residuals were screened out. 
% Including high Altitude rate spectra, matched to splined stratospheric AOD measured at MLO.
% Averages of c0 from multiple days including: , MLO -av-g-, WFF--20-17, infl-ig-ht, high- a-lt, high- a-lt, high- a-lt, high- a-lt. See the list of files below
% 20170605_VIS_C0_refined_Langley_MLO_May2017_averages.dat
% 20170801_VIS_C0_refined_langley_4STAR_WFF_ground.dat
% 20170807_VIS_C0_refined_langley_4STARpm.dat
% 20170809_VIS_C0_refined_high_alt_low_m_frompolyfit.dat
% 20170809_VIS_C0_refined_high_alt_low_m_frompolyfit.dat
% 20170809_VIS_C0_refined_high_alt_low_m_frompolyfit.dat
% 20170815_VIS_C0_refined_high_alt_low_m_frompolyfit.dat
Pix Wavelength C0 C0err
0 173.18 -4.28571429e-01 5.34522484e-01 
1 173.98 -1.00000000e+00 0.00000000e+00 
2 174.77 -1.00000000e+00 0.00000000e+00 
3 175.56 -1.00000000e+00 0.00000000e+00 
4 176.36 -1.00000000e+00 0.00000000e+00 
5 177.15 -1.00000000e+00 0.00000000e+00 
6 177.94 -1.00000000e+00 0.00000000e+00 
7 178.74 -1.00000000e+00 0.00000000e+00 
8 179.53 -1.00000000e+00 0.00000000e+00 
9 180.33 -1.00000000e+00 0.00000000e+00 
10 181.12 -1.00000000e+00 0.00000000e+00 
11 181.92 -1.00000000e+00 0.00000000e+00 
12 182.71 -1.00000000e+00 0.00000000e+00 
13 183.51 -1.00000000e+00 0.00000000e+00 
14 184.30 -1.00000000e+00 0.00000000e+00 
15 185.10 -1.00000000e+00 0.00000000e+00 
16 185.89 -1.00000000e+00 0.00000000e+00 
17 186.69 -1.00000000e+00 0.00000000e+00 
18 187.49 -1.00000000e+00 0.00000000e+00 
19 188.28 -1.00000000e+00 0.00000000e+00 
20 189.08 -1.00000000e+00 0.00000000e+00 
21 189.88 -1.00000000e+00 0.00000000e+00 
22 190.67 -1.00000000e+00 0.00000000e+00 
23 191.47 -1.00000000e+00 0.00000000e+00 
24 192.27 -1.00000000e+00 0.00000000e+00 
25 193.07 -1.00000000e+00 0.00000000e+00 
26 193.86 -1.00000000e+00 0.00000000e+00 
27 194.66 -1.00000000e+00 0.00000000e+00 
28 195.46 -1.00000000e+00 0.00000000e+00 
29 196.26 -1.00000000e+00 0.00000000e+00 
30 197.05 -1.00000000e+00 0.00000000e+00 
31 197.85 -1.00000000e+00 0.00000000e+00 
32 198.65 -1.00000000e+00 0.00000000e+00 
33 199.45 -1.00000000e+00 0.00000000e+00 
34 200.25 -1.00000000e+00 0.00000000e+00 
35 201.05 -1.00000000e+00 0.00000000e+00 
36 201.85 -1.00000000e+00 0.00000000e+00 
37 202.65 -1.00000000e+00 0.00000000e+00 
38 203.44 -1.00000000e+00 0.00000000e+00 
39 204.24 -1.00000000e+00 0.00000000e+00 
40 205.04 -1.00000000e+00 0.00000000e+00 
41 205.84 -1.00000000e+00 0.00000000e+00 
42 206.64 4.32593083e+37 1.14453372e+38 
43 207.44 -2.90008271e-02 2.56902233e+00 
44 208.24 -5.76708009e-01 1.03018116e+00 
45 209.04 -6.44858926e-01 8.47824627e-01 
46 209.84 -5.80715941e-01 9.76593748e-01 
47 210.64 -5.01948948e-01 9.57662776e-01 
48 211.44 -5.07227423e-01 9.73260565e-01 
49 212.24 -5.42809725e-01 9.48440590e-01 
50 213.04 1.41697602e-01 2.31449789e+00 
51 213.85 8.46679174e-01 4.47037529e+00 
52 214.65 1.49776264e+00 6.17298768e+00 
53 215.45 1.52630826e+35 1.90364085e+35 
54 216.25 1.62360533e+34 2.02499163e+34 
55 217.05 1.73838495e+33 2.16814696e+33 
56 217.85 1.87273541e+32 2.33571142e+32 
57 218.65 2.00981458e+31 2.50667919e+31 
58 219.46 2.15490177e+30 2.68763470e+30 
59 220.26 2.32802376e+29 2.90355576e+29 
60 221.06 2.49773330e+28 3.11522075e+28 
61 221.86 2.73863845e+27 3.41568227e+27 
62 222.66 2.96836878e+26 3.70220633e+26 
63 223.47 3.23265757e+25 4.03183236e+25 
64 224.27 3.50073045e+24 4.36617798e+24 
65 225.07 3.80484726e+23 4.74547828e+23 
66 225.87 4.19087147e+22 5.22693507e+22 
67 226.68 4.67497526e+21 5.83071857e+21 
68 227.48 5.45636147e+20 6.80527840e+20 
69 228.28 7.44166736e+19 9.28138988e+19 
70 229.08 1.44957489e+19 1.80793754e+19 
71 229.89 5.51467959e+18 6.87801387e+18 
72 230.69 5.27037549e+18 6.57331312e+18 
73 231.49 1.36460068e+19 1.70195607e+19 
74 232.30 7.75093800e+19 9.66711814e+19 
75 233.10 7.20571076e+20 8.98710029e+20 
76 233.90 8.22622941e+21 1.02599107e+22 
77 234.71 1.03157057e+23 1.28659455e+23 
78 235.51 1.33548975e+24 1.66564837e+24 
79 236.32 1.78897005e+25 2.23123767e+25 
80 237.12 2.42122497e+26 3.01979810e+26 
81 237.92 3.32290329e+27 4.14438855e+27 
82 238.73 4.63969594e+28 5.78671753e+28 
83 239.53 6.51273381e+29 8.12280619e+29 
84 240.34 8.75613296e+30 1.09208165e+31 
85 241.14 1.10204130e+32 1.37448700e+32 
86 241.94 1.28002315e+33 1.59646936e+33 
87 242.75 1.35870236e+34 1.69459958e+34 
88 243.55 1.31898270e+35 1.64506045e+35 
89 244.36 6.14861558e-01 3.87653698e+00 
90 245.16 3.28512375e-01 3.08267683e+00 
91 245.97 -1.26566105e-01 1.92054044e+00 
92 246.77 -5.55543606e-01 9.22121936e-01 
93 247.58 -5.87670222e-01 8.60399476e-01 
94 248.38 -5.35373984e-01 8.80087323e-01 
95 249.19 -5.48458370e-01 9.36694965e-01 
96 249.99 -5.66965856e-01 8.81662439e-01 
97 250.80 -6.00038985e-01 8.00955977e-01 
98 251.60 1.28550449e+11 3.40112520e+11 
99 252.41 -6.05606124e-01 9.45747311e-01 
100 253.21 -6.17254070e-01 8.82120757e-01 
101 254.02 -5.42346244e-01 1.05434616e+00 
102 254.82 -5.82880637e-01 1.00476484e+00 
103 255.63 -6.48980257e-01 8.00642441e-01 
104 256.44 -6.53794422e-01 7.90105358e-01 
105 257.24 -5.99082203e-01 9.06670920e-01 
106 258.05 8.74344039e+05 2.31329857e+06 
107 258.85 -3.58594078e-01 1.10934270e+00 
108 259.66 -6.04634718e-01 8.40678454e-01 
109 260.46 -5.64329843e-01 8.87206089e-01 
110 261.27 -5.47465935e-01 9.18786620e-01 
111 262.08 -5.77707941e-01 8.51126147e-01 
112 262.88 -4.26170026e-01 1.19889276e+00 
113 263.69 9.86860759e-02 2.50365517e+00 
114 264.49 2.68378402e-01 2.93829317e+00 
115 265.30 4.30925731e-01 3.37232083e+00 
116 266.11 3.73521087e+34 4.65862645e+34 
117 266.91 3.01201422e+33 3.75664176e+33 
118 267.72 2.10222064e+32 2.62192980e+32 
119 268.53 1.24832033e+31 1.55692899e+31 
120 269.33 8.11818060e+29 1.01251501e+30 
121 270.14 6.23193137e+28 7.77258402e+28 
122 270.95 4.39889096e+27 5.48638095e+27 
123 271.75 2.82199514e+26 3.51964632e+26 
124 272.56 1.66724545e+25 2.07942042e+25 
125 273.37 8.43859916e+23 1.05247823e+24 
126 274.17 4.30008583e+22 5.36314930e+22 
127 274.98 2.59850421e+21 3.24090415e+21 
128 275.79 1.78441403e+20 2.22555531e+20 
129 276.59 1.33138471e+19 1.66052848e+19 
130 277.40 1.04805067e+18 1.30714885e+18 
131 278.21 8.00437200e+16 9.98320587e+16 
132 279.01 2.64709196e+33 7.00354702e+33 
133 279.82 1.54916909e+31 4.09871614e+31 
134 280.63 8.71979736e+28 2.30704153e+29 
135 281.43 5.59543423e+26 1.48041274e+27 
136 282.24 5.52218964e+24 1.46103405e+25 
137 283.05 8.21065814e+22 2.17233595e+23 
138 283.86 1.46496306e+21 3.87592793e+21 
139 284.66 2.69147780e+19 7.12098092e+19 
140 285.47 6.67641289e+17 1.76641281e+18 
141 286.28 2.45187166e+16 6.48704265e+16 
142 287.09 1.04601077e+15 2.76748432e+15 
143 287.89 4.57084783e+13 1.20933257e+14 
144 288.70 2.49357397e+12 6.59737422e+12 
145 289.51 1.90382946e+11 5.03705223e+11 
146 290.32 1.79115135e+10 4.73891777e+10 
147 291.12 1.91238486e+09 5.05961330e+09 
148 291.93 2.27727524e+08 6.02480653e+08 
149 292.74 3.31392133e+07 8.76661244e+07 
150 293.55 5.75146333e+06 1.52116506e+07 
151 294.35 1.18421452e+06 3.13063541e+06 
152 295.16 2.73706480e+05 7.22899880e+05 
153 295.97 7.08971448e+04 1.86901084e+05 
154 296.78 2.05550336e+04 5.40012044e+04 
155 297.58 6.58176100e+03 1.71902771e+04 
156 298.39 2.41409496e+03 6.24767318e+03 
157 299.20 1.00389333e+03 2.56395952e+03 
158 300.01 4.53853316e+02 1.13728323e+03 
159 300.81 2.27809017e+02 5.57030298e+02 
160 301.62 1.20311868e+02 2.84156325e+02 
161 302.43 7.02543954e+01 1.59825580e+02 
162 303.24 4.38280878e+01 9.52066049e+01 
163 304.04 2.88387069e+01 5.91483948e+01 
164 304.85 1.98553715e+01 3.82704464e+01 
165 305.66 1.43307958e+01 2.58585362e+01 
166 306.47 1.08185314e+01 1.81835464e+01 
167 307.28 8.48751020e+00 1.32776991e+01 
168 308.08 6.90250202e+00 1.00618462e+01 
169 308.89 5.79719635e+00 7.96257022e+00 
170 309.70 4.82786932e+00 6.09637108e+00 
171 310.51 4.19554147e+00 4.91964819e+00 
172 311.32 3.69671794e+00 4.03171059e+00 
173 312.12 3.26440052e+00 3.30808901e+00 
174 312.93 2.92918539e+00 2.74135515e+00 
175 313.74 2.77103384e+00 2.37808427e+00 
176 314.55 2.53456880e+00 2.10403411e+00 
177 315.36 2.37794655e+00 1.87377622e+00 
178 316.16 2.26544975e+00 1.68816769e+00 
179 316.97 2.18569213e+00 1.57617422e+00 
180 317.78 2.09291014e+00 1.43372020e+00 
181 318.59 2.04183282e+00 1.33115850e+00 
182 319.40 1.97898035e+00 1.26653249e+00 
183 320.20 1.95077608e+00 1.15703904e+00 
184 321.01 1.90193115e+00 1.08820019e+00 
185 321.82 1.88499860e+00 1.04845447e+00 
186 322.63 1.86340748e+00 1.01208986e+00 
187 323.43 1.84130287e+00 9.57370192e-01 
188 324.24 1.83692408e+00 9.21767407e-01 
189 325.05 1.83630608e+00 9.01369153e-01 
190 325.86 1.84091386e+00 8.67244244e-01 
191 326.67 1.81765112e+00 8.50245846e-01 
192 327.48 1.83983949e+00 8.36519982e-01 
193 328.28 1.86332541e+00 8.26401635e-01 
194 329.09 1.87341713e+00 8.16181188e-01 
195 329.90 1.91969130e+00 8.15589573e-01 
196 330.71 1.97521654e+00 8.17035395e-01 
197 331.52 2.05043411e+00 8.29090524e-01 
198 332.32 2.19504888e+00 8.49322427e-01 
199 333.13 2.43504019e+00 9.55779655e-01 
200 333.94 2.91696807e+00 1.13281284e+00 
201 334.75 3.66381056e+00 1.41616071e+00 
202 335.55 4.68199753e+00 1.82002712e+00 
203 336.36 6.15922405e+00 2.37406645e+00 
204 337.17 8.46566317e+00 3.18573579e+00 
205 337.98 1.16018789e+01 4.41292062e+00 
206 338.79 1.53700585e+01 5.80957082e+00 
207 339.60 1.96342004e+01 7.29560321e+00 
208 340.40 2.34326130e+01 8.85160511e+00 
209 341.21 2.67268864e+01 9.86776344e+00 
210 342.02 3.05515609e+01 1.11254597e+01 
211 342.83 3.39412744e+01 1.23306763e+01 
212 343.63 3.50863953e+01 1.20757655e+01 
213 344.44 3.63310173e+01 1.27049542e+01 
214 345.25 4.04905279e+01 1.37581133e+01 
215 346.06 4.43807270e+01 1.48673486e+01 
216 346.87 4.68954318e+01 1.57409628e+01 
217 347.67 4.88047991e+01 1.60270139e+01 
218 348.48 5.07304819e+01 1.60995899e+01 
219 349.29 5.38468165e+01 1.69319450e+01 
220 350.10 5.92758606e+01 1.81450068e+01 
221 350.90 6.30267788e+01 1.88365660e+01 
222 351.71 6.34723071e+01 1.83161250e+01 
223 352.52 6.49283589e+01 1.82626932e+01 
224 353.33 7.10260391e+01 1.90439272e+01 
225 354.14 7.81915856e+01 2.09792041e+01 
226 354.94 8.19537372e+01 2.05215903e+01 
227 355.75 8.04490329e+01 2.06143270e+01 
228 356.56 7.61575132e+01 1.88443264e+01 
229 357.37 7.15004372e+01 1.82302027e+01 
230 358.18 7.07103618e+01 1.77984275e+01 
231 358.98 7.95996036e+01 1.91843087e+01 
232 359.79 9.21467919e+01 2.09673090e+01 
233 360.60 9.40270207e+01 2.08333038e+01 
234 361.41 9.28751757e+01 2.01482488e+01 
235 362.21 9.82772662e+01 2.02275220e+01 
236 363.02 1.04681491e+02 1.98480999e+01 
237 363.83 1.08655285e+02 1.92851480e+01 
238 364.64 1.13527562e+02 2.12019534e+01 
239 365.44 1.24519923e+02 2.08866002e+01 
240 366.25 1.33676047e+02 2.16540419e+01 
241 367.06 1.35217996e+02 2.07595097e+01 
242 367.87 1.33311417e+02 1.97460624e+01 
243 368.67 1.35491721e+02 1.90904017e+01 
244 369.48 1.41271733e+02 2.01284675e+01 
245 370.29 1.43139999e+02 1.85227914e+01 
246 371.10 1.41255381e+02 1.89604974e+01 
247 371.90 1.38360608e+02 1.67202067e+01 
248 372.71 1.30610866e+02 1.59483418e+01 
249 373.52 1.23562416e+02 1.45341178e+01 
250 374.33 1.22668592e+02 1.47891575e+01 
251 375.13 1.31328366e+02 1.54112297e+01 
252 375.94 1.43477569e+02 1.54124341e+01 
253 376.75 1.56466189e+02 1.52100306e+01 
254 377.56 1.71617177e+02 1.56756674e+01 
255 378.36 1.75952943e+02 1.51666363e+01 
256 379.17 1.67041595e+02 1.37670834e+01 
257 379.98 1.63474826e+02 1.31354611e+01 
258 380.78 1.63497798e+02 1.29322585e+01 
259 381.59 1.49054581e+02 1.23228674e+01 
260 382.40 1.26769545e+02 1.10572269e+01 
261 383.20 1.16351442e+02 1.04839740e+01 
262 384.01 1.26318028e+02 1.11417584e+01 
263 384.82 1.43508347e+02 1.11273642e+01 
264 385.63 1.50573100e+02 1.09361370e+01 
265 386.43 1.51869535e+02 1.08833770e+01 
266 387.24 1.52692525e+02 1.13960568e+01 
267 388.05 1.55039225e+02 1.13959023e+01 
268 388.85 1.64924669e+02 1.07740740e+01 
269 389.66 1.80157714e+02 1.19682152e+01 
270 390.47 1.92839805e+02 1.18531463e+01 
271 391.27 1.94058972e+02 1.19063475e+01 
272 392.08 1.73553287e+02 1.03526253e+01 
273 392.89 1.40165385e+02 9.38994728e+00 
274 393.69 1.31657646e+02 1.02188702e+01 
275 394.50 1.58264458e+02 1.06391520e+01 
276 395.31 1.78143445e+02 1.03233646e+01 
277 396.11 1.65419313e+02 1.05070793e+01 
278 396.92 1.55600974e+02 1.10033256e+01 
279 397.73 1.84119463e+02 1.24159143e+01 
280 398.53 2.28057796e+02 1.39457437e+01 
281 399.34 2.55749457e+02 1.52366483e+01 
282 400.15 2.69059336e+02 1.60521238e+01 
283 400.95 2.78632990e+02 1.64427740e+01 
284 401.76 2.86196256e+02 1.67776806e+01 
285 402.57 2.88471406e+02 1.68746602e+01 
286 403.37 2.86976470e+02 1.66913023e+01 
287 404.18 2.85531267e+02 1.66995466e+01 
288 404.99 2.84326455e+02 1.65588019e+01 
289 405.79 2.83421073e+02 1.60770250e+01 
290 406.60 2.84213665e+02 1.62212903e+01 
291 407.40 2.91247445e+02 1.66278959e+01 
292 408.21 3.02463545e+02 1.69604197e+01 
293 409.02 3.07125386e+02 1.68531054e+01 
294 409.82 3.02995986e+02 1.71145695e+01 
295 410.63 3.06240029e+02 1.74420506e+01 
296 411.43 3.19666647e+02 1.77061390e+01 
297 412.24 3.28050060e+02 1.83436630e+01 
298 413.05 3.28424532e+02 1.87969498e+01 
299 413.85 3.27578227e+02 1.90561789e+01 
300 414.66 3.27473194e+02 1.93746333e+01 
301 415.46 3.27933386e+02 1.98362580e+01 
302 416.27 3.27643715e+02 1.99923991e+01 
303 417.08 3.22531863e+02 2.02935417e+01 
304 417.88 3.16028122e+02 2.05333111e+01 
305 418.69 3.12759241e+02 2.07812337e+01 
306 419.49 3.12577358e+02 2.14514552e+01 
307 420.30 3.15786631e+02 2.22322045e+01 
308 421.11 3.18974248e+02 2.26234016e+01 
309 421.91 3.15805177e+02 2.29022313e+01 
310 422.72 3.09714352e+02 2.31187454e+01 
311 423.52 3.09225845e+02 2.30952338e+01 
312 424.33 3.12665468e+02 2.31852374e+01 
313 425.13 3.14830098e+02 2.32657111e+01 
314 425.94 3.15336683e+02 2.29278098e+01 
315 426.74 3.15180489e+02 2.25369440e+01 
316 427.55 3.15137556e+02 2.20224245e+01 
317 428.36 3.12130270e+02 2.08609077e+01 
318 429.16 3.00648547e+02 1.93439926e+01 
319 429.96 2.87644523e+02 1.84070592e+01 
320 430.77 2.95526538e+02 1.82639725e+01 
321 431.58 3.28601605e+02 1.81978313e+01 
322 432.38 3.62702069e+02 1.84772856e+01 
323 433.19 3.79640626e+02 1.86940643e+01 
324 433.99 3.88954390e+02 1.84809572e+01 
325 434.80 4.06044385e+02 1.81319426e+01 
326 435.60 4.29917372e+02 1.75137147e+01 
327 436.41 4.46839850e+02 1.67845232e+01 
328 437.21 4.48632017e+02 1.59374549e+01 
329 438.02 4.43912083e+02 1.52760435e+01 
330 438.82 4.47297629e+02 1.43873856e+01 
331 439.63 4.62215912e+02 1.35605985e+01 
332 440.43 4.82937320e+02 1.33511165e+01 
333 441.24 5.04758577e+02 1.32086646e+01 
334 442.04 5.24542385e+02 1.28295003e+01 
335 442.85 5.38331725e+02 1.27555619e+01 
336 443.65 5.46692939e+02 1.25384378e+01 
337 444.45 5.50636998e+02 1.19882652e+01 
338 445.26 5.51000490e+02 1.17216992e+01 
339 446.06 5.55828244e+02 1.16932948e+01 
340 446.87 5.69632281e+02 1.14224480e+01 
341 447.67 5.87002250e+02 1.12040806e+01 
342 448.48 6.00444547e+02 1.14110553e+01 
343 449.28 6.12978875e+02 1.15397971e+01 
344 450.09 6.27264750e+02 1.13857078e+01 
345 450.89 6.35970213e+02 1.09970972e+01 
346 451.70 6.30984744e+02 1.08095879e+01 
347 452.50 6.18917743e+02 1.07693810e+01 
348 453.30 6.13356091e+02 1.06050889e+01 
349 454.11 6.17399009e+02 1.01914968e+01 
350 454.91 6.27669136e+02 1.03811030e+01 
351 455.72 6.38646952e+02 1.05203203e+01 
352 456.52 6.48132890e+02 1.03852145e+01 
353 457.32 6.52483526e+02 1.01809586e+01 
354 458.13 6.51560525e+02 1.01610952e+01 
355 458.93 6.50747745e+02 1.02081802e+01 
356 459.74 6.55100044e+02 1.03727280e+01 
357 460.54 6.64072196e+02 1.05403131e+01 
358 461.34 6.73879544e+02 1.06768778e+01 
359 462.15 6.80305010e+02 1.07198545e+01 
360 462.95 6.80733355e+02 1.07284383e+01 
361 463.76 6.76478444e+02 1.06827106e+01 
362 464.56 6.72123015e+02 1.07556738e+01 
363 465.36 6.69268966e+02 1.06508763e+01 
364 466.17 6.67835650e+02 1.05331257e+01 
365 466.97 6.68572671e+02 1.06264489e+01 
366 467.77 6.72107136e+02 1.05042329e+01 
367 468.58 6.76263153e+02 1.03430903e+01 
368 469.38 6.76864239e+02 1.02742410e+01 
369 470.18 6.77332895e+02 1.07464185e+01 
370 470.99 6.84013034e+02 1.10139778e+01 
371 471.79 6.94779933e+02 1.10123160e+01 
372 472.59 7.03973661e+02 1.10040845e+01 
373 473.40 7.10316668e+02 1.13303488e+01 
374 474.20 7.14758452e+02 1.11291371e+01 
375 475.00 7.17834417e+02 1.10818439e+01 
376 475.81 7.19838492e+02 1.12466258e+01 
377 476.61 7.23856970e+02 1.13701560e+01 
378 477.41 7.31270458e+02 1.12081163e+01 
379 478.21 7.38486460e+02 1.12252674e+01 
380 479.02 7.43178910e+02 1.13763583e+01 
381 479.82 7.45952657e+02 1.15322322e+01 
382 480.62 7.49096268e+02 1.16015654e+01 
383 481.43 7.50790831e+02 1.16169012e+01 
384 482.23 7.49316431e+02 1.14595789e+01 
385 483.03 7.43723165e+02 1.13584964e+01 
386 483.84 7.31971540e+02 1.09609820e+01 
387 484.64 7.08847722e+02 1.03813945e+01 
388 485.44 6.79608877e+02 1.04374383e+01 
389 486.24 6.61917354e+02 1.06546175e+01 
390 487.04 6.65311413e+02 1.03414167e+01 
391 487.85 6.84811407e+02 1.02856722e+01 
392 488.65 7.07216221e+02 1.07136695e+01 
393 489.45 7.22606269e+02 1.10051727e+01 
394 490.26 7.28016030e+02 1.09002598e+01 
395 491.06 7.25099108e+02 1.12471708e+01 
396 491.86 7.19390384e+02 1.16122257e+01 
397 492.66 7.18891975e+02 1.16308367e+01 
398 493.46 7.26120605e+02 1.16232085e+01 
399 494.27 7.34698324e+02 1.16652528e+01 
400 495.07 7.39466344e+02 1.17156088e+01 
401 495.87 7.41218151e+02 1.16737371e+01 
402 496.67 7.38360388e+02 1.14860093e+01 
403 497.48 7.32738796e+02 1.13458277e+01 
404 498.28 7.26835768e+02 1.13615492e+01 
405 499.08 7.19869463e+02 1.11994111e+01 
406 499.88 7.12165673e+02 1.11290735e+01 
407 500.68 7.05079728e+02 1.12292784e+01 
408 501.48 7.01436069e+02 1.12535887e+01 
409 502.29 7.03622059e+02 1.10625202e+01 
410 503.09 7.08399597e+02 1.08876014e+01 
411 503.89 7.14551495e+02 1.09559020e+01 
412 504.69 7.22301937e+02 1.12179150e+01 
413 505.49 7.28770140e+02 1.11064419e+01 
414 506.29 7.30236232e+02 1.11183413e+01 
415 507.09 7.26308232e+02 1.12614732e+01 
416 507.90 7.21991435e+02 1.14953874e+01 
417 508.70 7.20558322e+02 1.12642390e+01 
418 509.50 7.21649936e+02 1.12197085e+01 
419 510.30 7.23287883e+02 1.13841718e+01 
420 511.10 7.22288644e+02 1.13189743e+01 
421 511.90 7.17767813e+02 1.13306036e+01 
422 512.71 7.10081197e+02 1.13422264e+01 
423 513.51 7.01688107e+02 1.13631514e+01 
424 514.31 6.95160707e+02 1.11647007e+01 
425 515.11 6.85354517e+02 1.06071581e+01 
426 515.91 6.68039522e+02 1.02811069e+01 
427 516.71 6.49728247e+02 1.03078185e+01 
428 517.51 6.39107403e+02 1.02397794e+01 
429 518.31 6.43353527e+02 9.94559668e+00 
430 519.11 6.59262011e+02 9.92491521e+00 
431 519.91 6.75676089e+02 1.00748400e+01 
432 520.71 6.87785617e+02 1.02026008e+01 
433 521.52 6.92966391e+02 1.04907506e+01 
434 522.32 6.95663830e+02 1.08232324e+01 
435 523.12 7.00638624e+02 1.10975363e+01 
436 523.92 7.06056751e+02 1.10079446e+01 
437 524.72 7.06436666e+02 1.07191650e+01 
438 525.52 6.96840876e+02 1.07426025e+01 
439 526.32 6.83994556e+02 1.09646347e+01 
440 527.12 6.81072441e+02 1.10342423e+01 
441 527.92 6.90771606e+02 1.08102445e+01 
442 528.72 7.06964773e+02 1.06837013e+01 
443 529.52 7.20590630e+02 1.08194006e+01 
444 530.32 7.26770664e+02 1.08498010e+01 
445 531.12 7.24608563e+02 1.07113718e+01 
446 531.92 7.17704477e+02 1.07080965e+01 
447 532.72 7.11019999e+02 1.07909982e+01 
448 533.52 7.10039543e+02 1.07183227e+01 
449 534.32 7.15743476e+02 1.06859239e+01 
450 535.12 7.21800492e+02 1.05543768e+01 
451 535.92 7.22957653e+02 1.06141824e+01 
452 536.72 7.20897750e+02 1.07617516e+01 
453 537.52 7.17802753e+02 1.08061520e+01 
454 538.32 7.13530876e+02 1.05525114e+01 
