% C0 (TOA Count Rate, /ms) for 4STAR NIR spectrometer (512 channels) derived from (SEE Original files for sources) and recorded on 2018-04-13 16:25:31.
% Langley at MLO and airborne Data outside 2.0x the STD of 501 nm Langley residuals were screened out. 
% Including high Altitude rate spectra, matched to splined stratospheric AOD measured at MLO.
% Averages of c0 from multiple days including: , MLO -av-g-, infl-ig-ht, infl-ig-ht, high- a-lt, high- a-lt, high- a-lt, high- a-lt. See the list of files below
% 20170605_NIR_C0_refined_Langley_MLO_May2017_averages.dat
% 20170807_NIR_C0_refined_langley_4STARpm.dat
% 20170807_NIR_C0_refined_langley_4STAR_subset_pm.dat
% 20170809_NIR_C0_refined_high_alt_low_m_frompolyfit.dat
% 20170815_NIR_C0_refined_high_alt_low_m_frompolyfit.dat
% 20170818_NIR_C0_refined_high_alt_low_m_frompolyfit.dat
% 20170903_NIR_C0_refined_high_alt_low_m_frompolyfitBonanza.dat
Pix Wavelength C0 C0err
511 949.79 5.02446880e+00 3.82684250e-01 
510 949.79 5.20645482e+00 3.12870290e-01 
509 951.68 5.57584934e+00 3.08371621e-01 
508 953.57 5.63158142e+00 2.99110220e-01 
507 955.46 6.07937242e+00 2.95784899e-01 
506 957.34 6.18390251e+00 2.81059204e-01 
505 959.22 6.64441448e+00 2.59242808e-01 
504 961.10 6.73422900e+00 2.30550519e-01 
503 962.98 7.16106551e+00 1.96388526e-01 
502 964.85 7.16297369e+00 1.62005626e-01 
501 966.72 7.66102566e+00 1.24300743e-01 
500 968.59 7.70340713e+00 1.00480340e-01 
499 970.45 8.10171772e+00 9.54558681e-02 
498 972.32 8.05293232e+00 1.01245591e-01 
497 974.18 8.39061944e+00 1.04456689e-01 
496 976.04 8.32078678e+00 9.74613444e-02 
495 977.89 8.65875085e+00 8.05338589e-02 
494 979.74 8.56919454e+00 5.96295510e-02 
493 981.59 8.85777138e+00 5.19980963e-02 
492 983.44 8.74051609e+00 5.53572853e-02 
491 985.29 8.99841565e+00 5.67900314e-02 
490 987.13 8.79744135e+00 5.78967051e-02 
489 988.97 9.04278639e+00 5.95617674e-02 
488 990.81 8.85479017e+00 5.76539327e-02 
487 992.65 9.03257449e+00 6.20985570e-02 
486 994.48 8.84072629e+00 5.78357720e-02 
485 996.31 8.98441701e+00 5.96259409e-02 
484 998.14 8.72728080e+00 5.73172259e-02 
483 999.97 8.88546358e+00 5.77017058e-02 
482 1001.79 8.59799662e+00 5.61208009e-02 
481 1003.62 8.68259364e+00 5.53539083e-02 
480 1005.44 8.46913647e+00 5.15196643e-02 
479 1007.25 8.71549427e+00 5.26609184e-02 
478 1009.07 8.53309679e+00 4.62442253e-02 
477 1010.88 8.69108316e+00 5.42083925e-02 
476 1012.69 8.43792543e+00 5.18813338e-02 
475 1014.50 8.55726331e+00 4.95418703e-02 
474 1016.31 8.34892818e+00 4.91986131e-02 
473 1018.11 8.49822687e+00 5.50240842e-02 
472 1019.91 8.25845861e+00 5.35308133e-02 
471 1021.71 8.41292727e+00 5.42882474e-02 
470 1023.51 8.19065266e+00 5.10804511e-02 
469 1025.30 8.35520835e+00 5.56618940e-02 
468 1027.09 8.24504884e+00 6.53227665e-02 
467 1028.88 8.41177500e+00 6.35695874e-02 
466 1030.67 8.24827469e+00 6.57282085e-02 
465 1032.46 8.41969813e+00 7.62073479e-02 
464 1034.24 8.26417819e+00 7.44008839e-02 
463 1036.02 8.44479979e+00 7.60464900e-02 
462 1037.80 8.33642980e+00 6.66067845e-02 
461 1039.58 8.53866539e+00 7.73126090e-02 
460 1041.35 8.39974878e+00 6.89662014e-02 
459 1043.12 8.56210284e+00 7.97460795e-02 
458 1044.89 8.47432545e+00 7.85239264e-02 
457 1046.66 8.68498625e+00 8.13868005e-02 
456 1048.43 8.60951878e+00 7.96920943e-02 
455 1050.19 8.83355009e+00 7.93576246e-02 
454 1051.95 8.68433403e+00 7.17955849e-02 
453 1053.71 8.92186855e+00 7.46312917e-02 
452 1055.47 8.74858815e+00 7.56713007e-02 
451 1057.23 8.88241532e+00 7.52072971e-02 
450 1058.98 8.73564216e+00 7.31499620e-02 
449 1060.73 8.92551036e+00 7.58494564e-02 
448 1062.48 8.73199449e+00 8.02659578e-02 
447 1064.23 8.86999539e+00 8.05473522e-02 
446 1065.97 8.56537117e+00 8.17431946e-02 
445 1067.71 8.60415445e+00 7.37725107e-02 
444 1069.46 8.40674026e+00 6.64488429e-02 
443 1071.19 8.51474835e+00 7.11119057e-02 
442 1072.93 8.34909398e+00 6.99893318e-02 
441 1074.67 8.44777073e+00 7.19351895e-02 
440 1076.40 8.25670853e+00 6.53761893e-02 
439 1078.13 8.30497467e+00 6.34610873e-02 
438 1079.86 8.07882529e+00 6.09347916e-02 
437 1081.58 8.16337765e+00 5.50621081e-02 
436 1083.31 8.04230870e+00 5.22740123e-02 
435 1085.03 8.20969606e+00 5.80528328e-02 
434 1086.75 8.14770619e+00 5.48583718e-02 
433 1088.47 8.29479338e+00 5.45438626e-02 
432 1090.19 8.18414979e+00 5.57535575e-02 
431 1091.90 8.29474388e+00 5.68937174e-02 
430 1093.61 8.15597758e+00 5.31589118e-02 
429 1095.33 8.35528365e+00 5.62921966e-02 
428 1097.03 8.39142026e+00 6.94430512e-02 
427 1098.74 8.62050632e+00 8.01730475e-02 
426 1100.45 8.61675845e+00 9.74145898e-02 
425 1102.15 8.89709457e+00 1.02560724e-01 
424 1103.85 8.87372489e+00 1.13157407e-01 
423 1105.55 9.10738112e+00 1.39635985e-01 
422 1107.25 9.04602760e+00 1.74207568e-01 
421 1108.94 9.18979427e+00 2.28459908e-01 
420 1110.64 8.98061098e+00 3.29575133e-01 
419 1112.33 9.00188610e+00 4.95762661e-01 
418 1114.02 8.63805743e+00 6.71651916e-01 
417 1115.70 8.58381579e+00 7.97072958e-01 
416 1117.39 8.32101264e+00 8.71116597e-01 
415 1119.07 8.30396044e+00 9.44890133e-01 
414 1120.76 8.15167870e+00 9.85497427e-01 
413 1122.44 8.19351655e+00 1.05027037e+00 
412 1124.12 8.10347291e+00 1.03366617e+00 
411 1125.79 8.28213182e+00 9.97083297e-01 
410 1127.47 8.37379330e+00 9.09158914e-01 
409 1129.14 8.66226303e+00 8.03797853e-01 
408 1130.81 8.33601352e+00 9.03322791e-01 
407 1132.48 8.25214049e+00 9.93504927e-01 
406 1134.15 8.11056017e+00 9.76694334e-01 
405 1135.81 8.40639164e+00 8.36384012e-01 
404 1137.48 8.79968740e+00 5.98983182e-01 
403 1139.14 9.04920884e+00 5.28384812e-01 
402 1140.80 8.81580704e+00 5.90862025e-01 
401 1142.46 8.77585953e+00 7.21040179e-01 
400 1144.12 8.53523929e+00 8.11978861e-01 
399 1145.77 8.57486870e+00 8.48646168e-01 
398 1147.43 8.53961891e+00 7.91026363e-01 
397 1149.08 8.71302582e+00 7.07857122e-01 
396 1150.73 8.66903794e+00 6.72084349e-01 
395 1152.38 8.90049672e+00 6.07056844e-01 
394 1154.02 8.86199746e+00 5.31065249e-01 
393 1155.67 9.08612142e+00 4.50728113e-01 
392 1157.31 8.96636824e+00 3.76085620e-01 
391 1158.95 9.06638116e+00 3.12519319e-01 
390 1160.59 9.00006976e+00 2.49177005e-01 
389 1162.23 9.14723167e+00 2.00930336e-01 
388 1163.87 9.05843486e+00 1.62361427e-01 
387 1165.50 9.13783078e+00 1.47507523e-01 
386 1167.13 9.02533288e+00 1.26977209e-01 
385 1168.76 9.11583424e+00 9.40465639e-02 
384 1170.39 8.98591305e+00 9.93520541e-02 
383 1172.02 8.99022572e+00 1.09204767e-01 
382 1173.65 8.82062247e+00 1.25104057e-01 
381 1175.27 8.80982054e+00 1.21319999e-01 
380 1176.90 8.69310252e+00 1.02366685e-01 
379 1178.52 8.66893769e+00 1.34456498e-01 
378 1180.14 8.46046745e+00 1.28183128e-01 
377 1181.75 8.43809477e+00 1.24848052e-01 
376 1183.37 8.23447827e+00 1.11462370e-01 
375 1184.99 8.27228252e+00 1.19947616e-01 
374 1186.60 8.15714732e+00 1.12701782e-01 
373 1188.21 8.13806723e+00 1.02467996e-01 
372 1189.82 8.04734991e+00 7.45436582e-02 
371 1191.43 8.22548067e+00 5.84846566e-02 
370 1193.04 8.11151677e+00 5.92076886e-02 
369 1194.64 8.08206782e+00 5.95218470e-02 
368 1196.24 7.89517285e+00 7.25235761e-02 
367 1197.85 7.94799611e+00 8.37271560e-02 
366 1199.45 7.81897322e+00 8.54180359e-02 
365 1201.05 7.90036326e+00 8.95904934e-02 
364 1202.64 7.84159356e+00 7.78279177e-02 
363 1204.24 7.88231276e+00 7.07626681e-02 
362 1205.83 7.80020428e+00 5.13651299e-02 
361 1207.43 7.80235695e+00 4.80621404e-02 
360 1209.02 7.75344868e+00 5.23664852e-02 
359 1210.61 7.88278094e+00 4.83797010e-02 
358 1212.19 7.86555440e+00 4.25669668e-02 
357 1213.78 8.00209902e+00 2.90625575e-02 
356 1215.37 7.92902977e+00 2.84622542e-02 
355 1216.95 7.98458853e+00 2.64650871e-02 
354 1218.53 7.94310697e+00 2.79281018e-02 
353 1220.11 8.01827251e+00 2.49705493e-02 
352 1221.69 7.98256113e+00 2.44633526e-02 
351 1223.27 8.02415472e+00 1.98868725e-02 
350 1224.84 8.01102723e+00 1.82551589e-02 
349 1226.42 8.06928593e+00 1.59722381e-02 
348 1227.99 8.04977669e+00 2.30965932e-02 
347 1229.56 8.17087001e+00 2.79921962e-02 
346 1231.13 8.09556947e+00 2.83608987e-02 
345 1232.70 8.16191943e+00 2.76255972e-02 
344 1234.27 8.11219474e+00 3.26271931e-02 
343 1235.84 8.11223466e+00 4.31971417e-02 
342 1237.40 8.04877183e+00 3.62779364e-02 
341 1238.96 8.03859515e+00 3.59484342e-02 
340 1240.52 7.89390526e+00 3.34630396e-02 
339 1242.08 8.02211471e+00 3.66497693e-02 
338 1243.64 7.98765382e+00 3.56060483e-02 
337 1245.20 8.02721405e+00 4.13571452e-02 
336 1246.75 7.98873433e+00 4.63729899e-02 
335 1248.31 8.04921241e+00 4.29600308e-02 
334 1249.86 7.97257723e+00 4.00777135e-02 
333 1251.41 8.00137636e+00 4.86604021e-02 
332 1252.96 7.92027712e+00 5.83090256e-02 
331 1254.51 7.93188856e+00 6.51029442e-02 
330 1256.06 7.83897828e+00 6.76960483e-02 
329 1257.61 7.79720241e+00 8.18845702e-02 
328 1259.15 7.67226907e+00 9.72771489e-02 
327 1260.69 7.61967297e+00 1.19422025e-01 
326 1262.23 7.48997064e+00 1.42512002e-01 
325 1263.77 7.45658885e+00 1.57943327e-01 
324 1265.31 7.28495310e+00 1.88978440e-01 
323 1266.85 7.30310410e+00 1.94417457e-01 
322 1268.39 7.36128506e+00 1.79471069e-01 
321 1269.92 7.47894964e+00 1.60806743e-01 
320 1271.46 7.63926698e+00 1.09085940e-01 
319 1272.99 7.70861399e+00 9.17200346e-02 
318 1274.52 7.71948148e+00 7.38164168e-02 
317 1276.05 7.79140238e+00 6.52582914e-02 
316 1277.58 7.67311862e+00 5.36179355e-02 
315 1279.10 7.52467125e+00 4.86937071e-02 
314 1280.63 7.47106346e+00 4.80556812e-02 
313 1282.15 7.45743538e+00 5.77576149e-02 
312 1283.68 7.54109925e+00 5.71242865e-02 
311 1285.20 7.70757693e+00 5.61273543e-02 
310 1286.72 7.65700102e+00 5.15815819e-02 
309 1288.24 7.67574612e+00 4.13145450e-02 
308 1289.75 7.58273734e+00 3.90805427e-02 
307 1291.27 7.60204799e+00 4.06985260e-02 
306 1292.78 7.63671949e+00 2.69041910e-02 
305 1294.30 7.66129171e+00 1.71205011e-02 
304 1295.81 7.59316892e+00 2.23931420e-02 
303 1297.32 7.58501388e+00 3.38628116e-02 
302 1298.83 7.52592962e+00 3.52273527e-02 
301 1300.34 7.47738439e+00 4.72725454e-02 
300 1301.85 7.42363756e+00 5.92737054e-02 
299 1303.35 7.38714941e+00 7.69952183e-02 
298 1304.86 7.30627217e+00 1.01789197e-01 
297 1306.36 7.28589145e+00 1.09296657e-01 
296 1307.86 7.24683658e+00 1.27070125e-01 
295 1309.36 7.17295328e+00 1.29947300e-01 
294 1310.86 7.08752979e+00 1.48805177e-01 
293 1312.36 7.00839027e+00 1.41824992e-01 
292 1313.86 6.95229504e+00 1.47841952e-01 
291 1315.36 6.94257719e+00 1.50604010e-01 
290 1316.85 6.90315131e+00 1.67350118e-01 
289 1318.34 6.89047742e+00 1.79209682e-01 
288 1319.84 6.83811766e+00 2.11763132e-01 
287 1321.33 6.84481302e+00 2.09533172e-01 
286 1322.82 6.77540880e+00 1.90320872e-01 
285 1324.30 6.74699236e+00 2.01808922e-01 
284 1325.79 6.62520031e+00 2.36050685e-01 
283 1327.28 6.50848684e+00 2.83558143e-01 
282 1328.76 6.33945978e+00 3.60610650e-01 
281 1330.25 6.26723712e+00 3.89643002e-01 
280 1331.73 6.20960699e+00 3.83102224e-01 
279 1333.21 6.21234906e+00 3.72951347e-01 
278 1334.69 6.19006966e+00 3.47035839e-01 
277 1336.17 6.14287778e+00 3.30869736e-01 
276 1337.65 6.07141708e+00 3.56812217e-01 
275 1339.12 5.99496915e+00 3.46311006e-01 
274 1340.60 5.91124833e+00 4.01537089e-01 
273 1342.07 5.80017679e+00 4.78925900e-01 
272 1343.55 5.62879399e+00 5.52525623e-01 
271 1345.02 5.28332274e+00 7.08750417e-01 
270 1346.49 5.05230284e+00 8.01102543e-01 
269 1347.96 4.79479292e+00 9.16038571e-01 
268 1349.43 4.48328299e+00 1.01559684e+00 
267 1350.89 4.19631249e+00 1.08858271e+00 
266 1352.36 3.78112225e+00 1.18026938e+00 
265 1353.82 3.49648520e+00 1.20356985e+00 
264 1355.29 3.16773950e+00 1.32017917e+00 
263 1356.75 3.00274205e+00 1.24584592e+00 
262 1358.21 2.70543154e+00 1.23502823e+00 
261 1359.67 2.41471641e+00 1.26904511e+00 
260 1361.13 2.28499142e+00 1.24308248e+00 
259 1362.59 2.22848303e+00 1.21119575e+00 
258 1364.04 2.35964378e+00 1.16586657e+00 
257 1365.50 2.34574375e+00 1.16818647e+00 
256 1366.95 2.32346819e+00 1.20200985e+00 
255 1368.41 2.23937335e+00 1.20605174e+00 
254 1369.86 2.26794113e+00 1.15666685e+00 
253 1371.31 2.41013462e+00 1.08873017e+00 
252 1372.76 2.41370938e+00 1.07143817e+00 
251 1374.21 2.51962546e+00 9.20358804e-01 
250 1375.65 2.43777073e+00 8.54634739e-01 
249 1377.10 2.20945042e+00 7.74393317e-01 
248 1378.55 1.90148826e+00 7.63754799e-01 
247 1379.99 1.63000566e+00 6.82537965e-01 
246 1381.43 1.46555249e+00 7.36836194e-01 
245 1382.87 1.50426321e+00 7.45946152e-01 
244 1384.32 1.65601089e+00 7.66457435e-01 
243 1385.75 1.86579647e+00 7.50144919e-01 
242 1387.19 2.11834369e+00 7.17309733e-01 
241 1388.63 2.18910042e+00 7.40777109e-01 
240 1390.07 2.26175990e+00 6.78766659e-01 
239 1391.50 2.24276396e+00 7.03162881e-01 
238 1392.94 1.96879868e+00 8.08045392e-01 
237 1394.37 2.05251103e+00 7.70410355e-01 
236 1395.80 2.23116949e+00 7.72233887e-01 
235 1397.23 2.16614084e+00 7.75652055e-01 
234 1398.66 2.25006039e+00 8.54326214e-01 
233 1400.09 2.41107178e+00 7.93506975e-01 
232 1401.52 2.31594044e+00 8.36741734e-01 
231 1402.94 2.47325315e+00 8.33101617e-01 
230 1404.37 2.56439863e+00 8.57220484e-01 
229 1405.79 2.51482062e+00 8.21113720e-01 
228 1407.22 2.56511946e+00 8.64662735e-01 
227 1408.64 2.71464629e+00 8.34555458e-01 
226 1410.06 2.86372006e+00 8.40314413e-01 
225 1411.48 2.89007563e+00 8.26968370e-01 
224 1412.90 3.02189254e+00 8.27734494e-01 
223 1414.32 3.12578098e+00 7.67820512e-01 
222 1415.73 3.11154623e+00 7.94109113e-01 
221 1417.15 3.15526780e+00 7.95391897e-01 
220 1418.56 3.25815759e+00 7.78037960e-01 
219 1419.98 3.22035908e+00 7.69608660e-01 
218 1421.39 3.30414155e+00 7.44728138e-01 
217 1422.80 3.42605366e+00 6.82215427e-01 
216 1424.21 3.47347414e+00 6.79713063e-01 
215 1425.62 3.45847663e+00 6.91027514e-01 
214 1427.03 3.53428794e+00 6.56381913e-01 
213 1428.44 3.39932946e+00 6.26381651e-01 
212 1429.84 3.25670926e+00 6.16630888e-01 
211 1431.25 3.22039959e+00 5.73308460e-01 
210 1432.65 3.20468387e+00 5.78402663e-01 
209 1434.06 3.24416816e+00 5.99296655e-01 
208 1435.46 3.34487664e+00 5.98563946e-01 
207 1436.86 3.36196495e+00 5.76212092e-01 
206 1438.26 3.38903157e+00 5.73101729e-01 
205 1439.66 3.39891023e+00 5.42563200e-01 
204 1441.05 3.51909630e+00 5.18290608e-01 
203 1442.45 3.45933176e+00 5.23726839e-01 
202 1443.85 3.49037391e+00 5.41886936e-01 
201 1445.24 3.57104219e+00 5.11869811e-01 
200 1446.64 3.62645988e+00 5.21407398e-01 
199 1448.03 3.58813396e+00 5.46008584e-01 
198 1449.42 3.67132661e+00 5.41373168e-01 
197 1450.81 3.67760818e+00 5.08105771e-01 
196 1452.20 3.70351963e+00 4.81580051e-01 
195 1453.59 3.83685148e+00 3.90633907e-01 
194 1454.97 3.98397366e+00 3.32765160e-01 
193 1456.36 3.99640818e+00 3.10083846e-01 
192 1457.75 4.03854760e+00 3.14363781e-01 
191 1459.13 3.99791883e+00 3.13001176e-01 
190 1460.51 3.97424030e+00 3.36912605e-01 
189 1461.90 3.85858707e+00 3.55892543e-01 
188 1463.28 3.82651551e+00 3.91554210e-01 
187 1464.66 3.74538986e+00 4.16479829e-01 
186 1466.04 3.76878490e+00 4.29410518e-01 
185 1467.41 3.65673198e+00 4.68426709e-01 
184 1468.79 3.62886108e+00 5.02150460e-01 
183 1470.17 3.58893557e+00 4.90977018e-01 
182 1471.54 3.62333971e+00 4.67275681e-01 
181 1472.92 3.66628324e+00 4.10431904e-01 
180 1474.29 3.76005068e+00 3.82964045e-01 
179 1475.66 3.74732104e+00 3.52373162e-01 
178 1477.03 3.70918409e+00 3.75518497e-01 
177 1478.40 3.67289689e+00 3.91679083e-01 
176 1479.77 3.72766580e+00 3.74136586e-01 
175 1481.14 3.71937530e+00 3.37184873e-01 
174 1482.51 3.80172392e+00 3.11425275e-01 
173 1483.87 3.76884697e+00 2.93756250e-01 
172 1485.24 3.73975290e+00 2.84473947e-01 
171 1486.60 3.68767917e+00 2.62166188e-01 
170 1487.96 3.74877354e+00 2.36912084e-01 
169 1489.32 3.73890881e+00 1.96496053e-01 
168 1490.68 3.86926953e+00 1.63360462e-01 
167 1492.04 3.85886567e+00 1.43804828e-01 
166 1493.40 3.90432524e+00 1.47000855e-01 
165 1494.76 3.88201648e+00 1.31774782e-01 
164 1496.12 3.91073386e+00 1.17312815e-01 
163 1497.47 3.86634254e+00 9.48207897e-02 
162 1498.83 3.92958576e+00 7.80346561e-02 
161 1500.18 3.79330775e+00 7.08824419e-02 
160 1501.53 3.73873200e+00 8.55672089e-02 
159 1502.89 3.63007658e+00 8.62940684e-02 
158 1504.24 3.65642366e+00 8.37701175e-02 
157 1505.59 3.68568989e+00 7.97452599e-02 
156 1506.93 3.80097685e+00 6.36109377e-02 
155 1508.28 3.83179629e+00 5.15934952e-02 
154 1509.63 3.87149360e+00 5.10409081e-02 
153 1510.97 3.81768921e+00 4.00618091e-02 
152 1512.32 3.86327410e+00 3.73364891e-02 
151 1513.66 3.78047930e+00 3.16493887e-02 
150 1515.00 3.82205481e+00 3.47034034e-02 
149 1516.34 3.77358626e+00 3.09282537e-02 
148 1517.69 3.79122487e+00 3.29104199e-02 
147 1519.02 3.72337677e+00 2.54273633e-02 
146 1520.36 3.73685658e+00 2.58736480e-02 
145 1521.70 3.68234271e+00 1.72517620e-02 
144 1523.04 3.72842394e+00 1.83797587e-02 
143 1524.37 3.67666832e+00 1.38342256e-02 
142 1525.71 3.71349943e+00 1.47539524e-02 
141 1527.04 3.64670092e+00 9.84244663e-03 
140 1528.37 3.67046751e+00 1.16589260e-02 
139 1529.70 3.59626216e+00 9.96690122e-03 
138 1531.03 3.63372532e+00 1.14630319e-02 
137 1532.36 3.58138539e+00 1.38605660e-02 
136 1533.69 3.62574030e+00 1.59584794e-02 
135 1535.02 3.56339984e+00 1.74096835e-02 
134 1536.34 3.60358548e+00 1.96509426e-02 
133 1537.67 3.54749738e+00 1.27591611e-02 
132 1538.99 3.58420737e+00 1.44722549e-02 
131 1540.31 3.52234508e+00 1.35321212e-02 
130 1541.64 3.56440247e+00 1.52339368e-02 
129 1542.96 3.52717754e+00 1.23034646e-02 
128 1544.28 3.56582462e+00 1.63173331e-02 
127 1545.60 3.48370337e+00 1.12828256e-02 
126 1546.91 3.51991274e+00 1.17900009e-02 
125 1548.23 3.43464108e+00 9.67804556e-03 
124 1549.55 3.47377674e+00 1.02815657e-02 
123 1550.86 3.40051142e+00 9.21339497e-03 
122 1552.18 3.42474252e+00 1.54243777e-02 
121 1553.49 3.35265002e+00 1.17055896e-02 
120 1554.80 3.38723481e+00 1.12173182e-02 
119 1556.11 3.31629717e+00 6.86933260e-03 
118 1557.42 3.35690584e+00 7.87137614e-03 
117 1558.73 3.28545696e+00 8.53036531e-03 
116 1560.04 3.31064336e+00 9.02371303e-03 
115 1561.34 3.22768375e+00 7.91771624e-03 
114 1562.65 3.27537973e+00 9.44463943e-03 
113 1563.95 3.19284607e+00 9.55133897e-03 
112 1565.26 3.24145959e+00 1.00752108e-02 
111 1566.56 3.13101922e+00 1.23922960e-02 
110 1567.86 3.14845865e+00 1.70527258e-02 
109 1569.16 3.04259275e+00 2.89586548e-02 
108 1570.46 3.02717464e+00 3.47897513e-02 
107 1571.76 2.93012521e+00 3.79351939e-02 
106 1573.05 2.91666592e+00 3.78076934e-02 
105 1574.35 2.82142059e+00 3.26103954e-02 
104 1575.64 2.84668697e+00 2.89723186e-02 
103 1576.94 2.81757636e+00 2.93652334e-02 
102 1578.23 2.88052760e+00 2.94724504e-02 
101 1579.52 2.85756279e+00 2.85049489e-02 
100 1580.81 2.92907288e+00 2.26593415e-02 
99 1582.10 2.87398725e+00 1.70381328e-02 
98 1583.39 2.93936055e+00 1.54295009e-02 
97 1584.68 2.87484588e+00 1.06927742e-02 
96 1585.97 2.87746056e+00 1.41374638e-02 
95 1587.25 2.78016603e+00 1.34074573e-02 
94 1588.54 2.78729575e+00 1.16005425e-02 
93 1589.82 2.72076264e+00 9.67454056e-03 
92 1591.10 2.80413864e+00 1.07155916e-02 
91 1592.38 2.75478266e+00 1.04728986e-02 
90 1593.66 2.81406108e+00 1.55223825e-02 
89 1594.94 2.74432684e+00 1.26958947e-02 
88 1596.22 2.77440116e+00 1.93246415e-02 
87 1597.50 2.69418919e+00 2.19550240e-02 
86 1598.77 2.70892618e+00 2.34822669e-02 
85 1600.05 2.61948210e+00 3.00412734e-02 
84 1601.32 2.63918696e+00 3.18837342e-02 
83 1602.59 2.56325873e+00 3.32820211e-02 
82 1603.86 2.62109675e+00 2.91144023e-02 
81 1605.13 2.51998643e+00 2.73015804e-02 
80 1606.40 2.57351334e+00 2.52129559e-02 
79 1607.67 2.48387694e+00 2.64870066e-02 
78 1608.94 2.52324201e+00 2.83379689e-02 
77 1610.20 2.46960920e+00 2.31840369e-02 
76 1611.47 2.53533654e+00 1.83894192e-02 
75 1612.73 2.48247075e+00 1.29132986e-02 
74 1614.00 2.52619247e+00 1.50635835e-02 
73 1615.26 2.45092909e+00 1.51590558e-02 
72 1616.52 2.47184004e+00 1.85891391e-02 
71 1617.78 2.37207298e+00 1.56441706e-02 
70 1619.03 2.40959694e+00 1.51459299e-02 
69 1620.29 2.35011780e+00 1.46198093e-02 
68 1621.55 2.40887212e+00 1.05796298e-02 
