% C0 (TOA Count Rate, /ms) for 4STAR VIS spectrometer (1044 channels) derived from 4STAR_20170818starsun.mat and recorded on 2018-04-13 16:19:33.
% Using a high altitude AOD spectra, which has been polyfit to extrapolate to problematic wavelengths, calculating the c0 from the AOD at low airmass. 
Pix Wavelength C0 C0err
0 173.18 0.00000000e+00 0.00000000e+00 
1 173.98 -1.00000000e+00 0.00000000e+00 
2 174.77 -1.00000000e+00 0.00000000e+00 
3 175.56 -1.00000000e+00 0.00000000e+00 
4 176.36 -1.00000000e+00 0.00000000e+00 
5 177.15 -1.00000000e+00 0.00000000e+00 
6 177.94 -1.00000000e+00 0.00000000e+00 
7 178.74 -1.00000000e+00 0.00000000e+00 
8 179.53 -1.00000000e+00 0.00000000e+00 
9 180.33 -1.00000000e+00 0.00000000e+00 
10 181.12 -1.00000000e+00 0.00000000e+00 
11 181.92 -1.00000000e+00 0.00000000e+00 
12 182.71 -1.00000000e+00 0.00000000e+00 
13 183.51 -1.00000000e+00 0.00000000e+00 
14 184.30 -1.00000000e+00 0.00000000e+00 
15 185.10 -1.00000000e+00 0.00000000e+00 
16 185.89 -1.00000000e+00 0.00000000e+00 
17 186.69 -1.00000000e+00 0.00000000e+00 
18 187.49 -1.00000000e+00 0.00000000e+00 
19 188.28 -1.00000000e+00 0.00000000e+00 
20 189.08 -1.00000000e+00 0.00000000e+00 
21 189.88 -1.00000000e+00 0.00000000e+00 
22 190.67 -1.00000000e+00 0.00000000e+00 
23 191.47 -1.00000000e+00 0.00000000e+00 
24 192.27 -1.00000000e+00 0.00000000e+00 
25 193.07 -1.00000000e+00 0.00000000e+00 
26 193.86 -1.00000000e+00 0.00000000e+00 
27 194.66 -1.00000000e+00 0.00000000e+00 
28 195.46 -1.00000000e+00 0.00000000e+00 
29 196.26 -1.00000000e+00 0.00000000e+00 
30 197.05 -1.00000000e+00 0.00000000e+00 
31 197.85 -1.00000000e+00 0.00000000e+00 
32 198.65 -1.00000000e+00 0.00000000e+00 
33 199.45 -1.00000000e+00 0.00000000e+00 
34 200.25 -1.00000000e+00 0.00000000e+00 
35 201.05 -1.00000000e+00 0.00000000e+00 
36 201.85 -1.00000000e+00 0.00000000e+00 
37 202.65 -1.00000000e+00 0.00000000e+00 
38 203.44 -1.00000000e+00 0.00000000e+00 
39 204.24 -1.00000000e+00 0.00000000e+00 
40 205.04 -1.00000000e+00 0.00000000e+00 
41 205.84 -1.00000000e+00 0.00000000e+00 
42 206.64 -1.00000000e+00 0.00000000e+00 
43 207.44 -1.00000000e+00 0.00000000e+00 
44 208.24 -1.00000000e+00 0.00000000e+00 
45 209.04 -1.00000000e+00 0.00000000e+00 
46 209.84 -1.00000000e+00 -1.00000000e+00 
47 210.64 -1.00000000e+00 -1.00000000e+00 
48 211.44 -1.00000000e+00 -1.00000000e+00 
49 212.24 2.10541632e+35 -1.00000000e+00 
50 213.04 2.85820820e+34 -1.00000000e+00 
51 213.85 3.90287027e+33 -1.00000000e+00 
52 214.65 5.29943949e+32 -1.00000000e+00 
53 215.45 7.19560869e+31 -1.00000000e+00 
54 216.25 9.78388562e+30 -1.00000000e+00 
55 217.05 1.33164615e+30 -1.00000000e+00 
56 217.85 1.83290514e+29 -1.00000000e+00 
57 218.65 2.49488760e+28 -1.00000000e+00 
58 219.46 3.43434014e+27 -1.00000000e+00 
59 220.26 4.67099341e+26 -1.00000000e+00 
60 221.06 6.43963200e+25 -1.00000000e+00 
61 221.86 8.81351824e+24 -1.00000000e+00 
62 222.66 1.21432582e+24 -1.00000000e+00 
63 223.47 1.68078211e+23 -1.00000000e+00 
64 224.27 2.32438636e+22 -1.00000000e+00 
65 225.07 3.19069985e+21 -1.00000000e+00 
66 225.87 4.46011948e+20 -1.00000000e+00 
67 226.68 6.22285758e+19 -1.00000000e+00 
68 227.48 9.11528949e+18 -1.00000000e+00 
69 228.28 1.52227440e+18 1.34449484e+17 
70 229.08 3.53402485e+17 3.03980970e+16 
71 229.89 1.46829917e+17 1.24001547e+16 
72 230.69 1.43267095e+17 1.20591128e+16 
73 231.49 3.33495861e+17 2.87624081e+16 
74 232.30 1.59963892e+18 1.42210293e+17 
75 233.10 1.17080077e+19 -1.00000000e+00 
76 233.90 1.04963180e+20 -1.00000000e+00 
77 234.71 1.00315106e+21 -1.00000000e+00 
78 235.51 1.00506495e+22 -1.00000000e+00 
79 236.32 1.00650327e+23 -1.00000000e+00 
80 237.12 1.04419935e+24 -1.00000000e+00 
81 237.92 1.09015012e+25 -1.00000000e+00 
82 238.73 1.15310597e+26 -1.00000000e+00 
83 239.53 1.21732993e+27 -1.00000000e+00 
84 240.34 1.24393438e+28 -1.00000000e+00 
85 241.14 1.19292427e+29 -1.00000000e+00 
86 241.94 1.06328872e+30 -1.00000000e+00 
87 242.75 8.69345206e+30 -1.00000000e+00 
88 243.55 6.70958569e+31 -1.00000000e+00 
89 244.36 4.64791822e+32 -1.00000000e+00 
90 245.16 3.01744264e+33 -1.00000000e+00 
91 245.97 1.72278928e+34 -1.00000000e+00 
92 246.77 8.63097638e+34 -1.00000000e+00 
93 247.58 3.85068598e+35 -1.00000000e+00 
94 248.38 -1.00000000e+00 -1.00000000e+00 
95 249.19 -1.00000000e+00 -1.00000000e+00 
96 249.99 -1.00000000e+00 -1.00000000e+00 
97 250.80 -1.00000000e+00 -1.00000000e+00 
98 251.60 -1.00000000e+00 -1.00000000e+00 
99 252.41 -1.00000000e+00 -1.00000000e+00 
100 253.21 -1.00000000e+00 -1.00000000e+00 
101 254.02 -1.00000000e+00 -1.00000000e+00 
102 254.82 -1.00000000e+00 -1.00000000e+00 
103 255.63 -1.00000000e+00 -1.00000000e+00 
104 256.44 -1.00000000e+00 -1.00000000e+00 
105 257.24 -1.00000000e+00 -1.00000000e+00 
106 258.05 -1.00000000e+00 -1.00000000e+00 
107 258.85 -1.00000000e+00 -1.00000000e+00 
108 259.66 -1.00000000e+00 -1.00000000e+00 
109 260.46 -1.00000000e+00 -1.00000000e+00 
110 261.27 -1.00000000e+00 -1.00000000e+00 
111 262.08 2.16836587e+35 -1.00000000e+00 
112 262.88 3.93109196e+34 -1.00000000e+00 
113 263.69 6.69570324e+33 -1.00000000e+00 
114 264.49 1.17417947e+33 -1.00000000e+00 
115 265.30 1.76306976e+32 -1.00000000e+00 
116 266.11 2.16849256e+31 -1.00000000e+00 
117 266.91 2.28706551e+30 -1.00000000e+00 
118 267.72 2.12068993e+29 -1.00000000e+00 
119 268.53 1.72116988e+28 -1.00000000e+00 
120 269.33 1.48858997e+27 -1.00000000e+00 
121 270.14 1.48912808e+26 -1.00000000e+00 
122 270.95 1.42031559e+25 -1.00000000e+00 
123 271.75 1.20770920e+24 -1.00000000e+00 
124 272.56 9.59226188e+22 -1.00000000e+00 
125 273.37 6.72164046e+21 -1.00000000e+00 
126 274.17 4.64453767e+20 -1.00000000e+00 
127 274.98 3.78768518e+19 -1.00000000e+00 
128 275.79 3.39413934e+18 3.03952087e+17 
129 276.59 3.35384650e+17 2.88742985e+16 
130 277.40 3.42622383e+16 2.77772420e+15 
131 278.21 3.45450582e+15 2.68119826e+14 
132 279.01 3.63381547e+14 3.26985025e+13 
133 279.82 4.08275732e+13 2.80418714e+12 
134 280.63 4.52877458e+12 2.83437662e+11 
135 281.43 5.34418194e+11 3.13690317e+10 
136 282.24 7.60171069e+10 4.11467853e+09 
137 283.05 1.26054922e+10 6.64091648e+08 
138 283.86 2.26970035e+09 1.07657216e+08 
139 284.66 4.19011424e+08 1.80338120e+07 
140 285.47 8.58869520e+07 3.54660775e+06 
141 286.28 2.10322260e+07 8.01221750e+05 
142 287.09 5.51941650e+06 1.94961438e+05 
143 287.89 1.45716188e+06 4.98349063e+04 
144 288.70 4.19571656e+05 1.40090107e+04 
145 289.51 1.40808219e+05 4.52247559e+03 
146 290.32 5.18213242e+04 1.58285437e+03 
147 291.12 2.00226738e+04 5.78610840e+02 
148 291.93 8.06458447e+03 2.16923965e+02 
149 292.74 3.56310181e+03 9.73367920e+01 
150 293.55 1.68429285e+03 4.25685043e+01 
151 294.35 8.53930786e+02 2.17324066e+01 
152 295.16 4.56771423e+02 1.15716810e+01 
153 295.97 2.58284271e+02 6.53034115e+00 
154 296.78 1.51690903e+02 3.86750793e+00 
155 297.58 9.35372925e+01 2.21248889e+00 
156 298.39 6.03925591e+01 1.46581125e+00 
157 299.20 4.15434647e+01 1.00333071e+00 
158 300.01 2.93963261e+01 6.79783881e-01 
159 300.81 2.18703251e+01 5.33109725e-01 
160 301.62 1.63882904e+01 3.75393063e-01 
161 302.43 1.30456381e+01 2.93412000e-01 
162 303.24 1.02993870e+01 2.47148409e-01 
163 304.04 8.50432205e+00 2.09268406e-01 
164 304.85 7.09834337e+00 1.73152342e-01 
165 305.66 6.02702379e+00 1.49878040e-01 
166 306.47 5.24246979e+00 1.21997766e-01 
167 307.28 4.62176180e+00 1.12389959e-01 
168 308.08 4.13020658e+00 9.83089879e-02 
169 308.89 3.77138281e+00 8.73662010e-02 
170 309.70 3.39912558e+00 8.26846212e-02 
171 310.51 3.15027905e+00 7.51837492e-02 
172 311.32 2.92165351e+00 6.69341907e-02 
173 312.12 2.71913266e+00 6.14330173e-02 
174 312.93 2.52785850e+00 5.75113334e-02 
175 313.74 2.42290664e+00 5.07751368e-02 
176 314.55 2.31170750e+00 4.60650846e-02 
177 315.36 2.23678207e+00 4.58742604e-02 
178 316.16 2.14657879e+00 4.16514501e-02 
179 316.97 2.11738062e+00 4.09117080e-02 
180 317.78 2.05261993e+00 3.83185968e-02 
181 318.59 2.01913619e+00 3.89335603e-02 
182 319.40 1.98483491e+00 3.87599319e-02 
183 320.20 1.96924663e+00 3.71964127e-02 
184 321.01 1.92879760e+00 3.89716625e-02 
185 321.82 1.95880818e+00 4.07162011e-02 
186 322.63 1.92495763e+00 3.86211798e-02 
187 323.43 1.93071711e+00 3.83630097e-02 
188 324.24 1.91345549e+00 3.53925787e-02 
189 325.05 1.94952190e+00 3.56923528e-02 
190 325.86 1.94250739e+00 3.43675055e-02 
191 326.67 1.95650387e+00 3.69177163e-02 
192 327.48 1.98037660e+00 3.91286425e-02 
193 328.28 2.03434110e+00 3.84308808e-02 
194 329.09 2.04546547e+00 3.42227407e-02 
195 329.90 2.10136724e+00 3.36602256e-02 
196 330.71 2.15233922e+00 3.46333496e-02 
197 331.52 2.25618124e+00 3.60896550e-02 
198 332.32 2.42048407e+00 3.99022289e-02 
199 333.13 2.72551394e+00 3.91769670e-02 
200 333.94 3.29094410e+00 4.21471521e-02 
201 334.75 4.19172144e+00 4.20554988e-02 
202 335.55 5.36212301e+00 4.99488562e-02 
203 336.36 7.05981636e+00 5.48935980e-02 
204 337.17 9.68285465e+00 6.03244714e-02 
205 337.98 1.32618685e+01 7.35609308e-02 
206 338.79 1.75078182e+01 8.46519172e-02 
207 339.60 2.22354336e+01 9.10549313e-02 
208 340.40 2.65112038e+01 1.00381136e-01 
209 341.21 3.01328316e+01 9.91788954e-02 
210 342.02 3.44246521e+01 1.11495912e-01 
211 342.83 3.80833740e+01 1.11547075e-01 
212 343.63 3.90091095e+01 1.13376416e-01 
213 344.44 4.07055855e+01 1.17979728e-01 
214 345.25 4.52810516e+01 1.17166877e-01 
215 346.06 4.94208794e+01 1.18002176e-01 
216 346.87 5.21487274e+01 1.29686013e-01 
217 347.67 5.41287117e+01 1.31631240e-01 
218 348.48 5.60790977e+01 1.30441800e-01 
219 349.29 5.96129951e+01 1.30362421e-01 
220 350.10 6.54863434e+01 1.48372889e-01 
221 350.90 6.91489639e+01 1.51820585e-01 
222 351.71 6.92489853e+01 1.51374131e-01 
223 352.52 7.09326172e+01 1.51461765e-01 
224 353.33 7.75217361e+01 1.54391304e-01 
225 354.14 8.51458282e+01 1.57670498e-01 
226 354.94 8.83214035e+01 1.59573212e-01 
227 355.75 8.65350418e+01 1.62445679e-01 
228 356.56 8.15402908e+01 1.57515556e-01 
229 357.37 7.68642731e+01 1.51819050e-01 
230 358.18 7.64369431e+01 1.48289755e-01 
231 358.98 8.64508896e+01 1.60616681e-01 
232 359.79 9.90051575e+01 1.70339063e-01 
233 360.60 1.00051033e+02 1.74527228e-01 
234 361.41 9.89322662e+01 1.66449666e-01 
235 362.21 1.04705742e+02 1.78399891e-01 
236 363.02 1.10700317e+02 1.78287208e-01 
237 363.83 1.14252953e+02 1.85910359e-01 
238 364.64 1.20088974e+02 1.92463666e-01 
239 365.44 1.31100891e+02 1.99197426e-01 
240 366.25 1.39920746e+02 2.11810261e-01 
241 367.06 1.40564941e+02 2.09657520e-01 
242 367.87 1.38269928e+02 2.04910576e-01 
243 368.67 1.40643082e+02 1.92152530e-01 
244 369.48 1.46731796e+02 2.15256318e-01 
245 370.29 1.47500717e+02 2.04050601e-01 
246 371.10 1.45802490e+02 2.13264510e-01 
247 371.90 1.41858994e+02 2.00452089e-01 
248 372.71 1.33674088e+02 1.94204241e-01 
249 373.52 1.26469810e+02 1.86006889e-01 
250 374.33 1.26305138e+02 1.77526876e-01 
251 375.13 1.35553711e+02 2.01017067e-01 
252 375.94 1.47449875e+02 2.11775959e-01 
253 376.75 1.60253601e+02 2.22560301e-01 
254 377.56 1.75260834e+02 2.14906648e-01 
255 378.36 1.78049301e+02 2.28039697e-01 
256 379.17 1.68113159e+02 2.15774938e-01 
257 379.98 1.65214096e+02 2.15628862e-01 
258 380.78 1.64989868e+02 2.15054870e-01 
259 381.59 1.49367111e+02 2.00223863e-01 
260 382.40 1.26941765e+02 1.84334084e-01 
261 383.20 1.17762039e+02 1.78967431e-01 
262 384.01 1.29102493e+02 1.82260886e-01 
263 384.82 1.45709732e+02 2.02628419e-01 
264 385.63 1.51527969e+02 1.99855238e-01 
265 386.43 1.52608353e+02 1.92296639e-01 
266 387.24 1.53534897e+02 2.05775529e-01 
267 388.05 1.55815628e+02 2.02506289e-01 
268 388.85 1.65679199e+02 2.21372157e-01 
269 389.66 1.81033295e+02 2.34358743e-01 
270 390.47 1.92703323e+02 2.00363725e-01 
271 391.27 1.92976288e+02 2.26498991e-01 
272 392.08 1.70549561e+02 2.17601404e-01 
273 392.89 1.37257675e+02 1.88100845e-01 
274 393.69 1.32080688e+02 1.80582523e-01 
275 394.50 1.60045105e+02 2.08465502e-01 
276 395.31 1.77328674e+02 2.21692204e-01 
277 396.11 1.62477249e+02 2.00129330e-01 
278 396.92 1.54340515e+02 1.98157459e-01 
279 397.73 1.85503036e+02 2.24748701e-01 
280 398.53 2.28171829e+02 2.45300382e-01 
281 399.34 2.53409485e+02 2.55777657e-01 
282 400.15 2.65438049e+02 2.63348669e-01 
283 400.95 2.74452057e+02 2.62554467e-01 
284 401.76 2.81752991e+02 2.67186791e-01 
285 402.57 2.83431244e+02 2.63876230e-01 
286 403.37 2.81702942e+02 2.90822923e-01 
287 404.18 2.80569183e+02 2.71723896e-01 
288 404.99 2.79353241e+02 2.86993504e-01 
289 405.79 2.77939697e+02 2.68823564e-01 
290 406.60 2.78953369e+02 2.77600706e-01 
291 407.40 2.86347778e+02 2.88642287e-01 
292 408.21 2.97579681e+02 2.71748722e-01 
293 409.02 3.01076508e+02 2.71824509e-01 
294 409.82 2.96318207e+02 2.81716704e-01 
295 410.63 3.00393097e+02 2.98354983e-01 
296 411.43 3.13905212e+02 2.98202574e-01 
297 412.24 3.21067078e+02 3.01359683e-01 
298 413.05 3.20711029e+02 2.96308011e-01 
299 413.85 3.19876221e+02 2.93824524e-01 
300 414.66 3.19485565e+02 2.88500577e-01 
301 415.46 3.19932831e+02 2.91497976e-01 
302 416.27 3.19229370e+02 3.10700089e-01 
303 417.08 3.13621033e+02 2.81731874e-01 
304 417.88 3.07100525e+02 2.77805686e-01 
305 418.69 3.04147308e+02 2.85187423e-01 
306 419.49 3.04009766e+02 2.87935376e-01 
307 420.30 3.07386292e+02 2.99772710e-01 
308 421.11 3.10344757e+02 2.93920964e-01 
309 421.91 3.06555359e+02 2.90183604e-01 
310 422.72 3.00685028e+02 2.90449947e-01 
311 423.52 3.01014435e+02 2.93838084e-01 
312 424.33 3.04636902e+02 2.82986999e-01 
313 425.13 3.06831085e+02 2.88031638e-01 
314 425.94 3.07409882e+02 2.98273116e-01 
315 426.74 3.07432556e+02 3.10140222e-01 
316 427.55 3.07563660e+02 3.09147090e-01 
317 428.36 3.04718506e+02 3.17102402e-01 
318 429.16 2.92869507e+02 3.18894655e-01 
319 429.96 2.80521179e+02 3.08676124e-01 
320 430.77 2.90942291e+02 2.88697928e-01 
321 431.58 3.25544067e+02 3.22226346e-01 
322 432.38 3.58361633e+02 3.47814023e-01 
323 433.19 3.73361603e+02 3.30174625e-01 
324 433.99 3.82548676e+02 3.43125790e-01 
325 434.80 4.00475220e+02 3.23112637e-01 
326 435.60 4.24611603e+02 3.37947339e-01 
327 436.41 4.40678925e+02 3.39801967e-01 
328 437.21 4.41263092e+02 3.53308439e-01 
329 438.02 4.36450897e+02 3.51455510e-01 
330 438.82 4.41364258e+02 3.47414821e-01 
331 439.63 4.57032715e+02 3.43055546e-01 
332 440.43 4.77758392e+02 3.57821792e-01 
333 441.24 4.99451141e+02 3.56696546e-01 
334 442.04 5.18840210e+02 3.81339967e-01 
335 442.85 5.31887451e+02 3.87434721e-01 
336 443.65 5.39927673e+02 3.88242036e-01 
337 444.45 5.43677124e+02 4.19228762e-01 
338 445.26 5.43808167e+02 3.89561445e-01 
339 446.06 5.49354797e+02 3.89499068e-01 
340 446.87 5.64142212e+02 4.03771967e-01 
341 447.67 5.81346619e+02 4.05292332e-01 
342 448.48 5.94266479e+02 4.10683095e-01 
343 449.28 6.06972351e+02 4.48058218e-01 
344 450.09 6.21405334e+02 4.27956283e-01 
345 450.89 6.29392456e+02 4.39112514e-01 
346 451.70 6.23132629e+02 4.37962562e-01 
347 452.50 6.10907776e+02 4.03497189e-01 
348 453.30 6.06524719e+02 4.19436902e-01 
349 454.11 6.11642273e+02 4.21821773e-01 
350 454.91 6.22105591e+02 4.54012066e-01 
351 455.72 6.33325500e+02 4.54724818e-01 
352 456.52 6.42824219e+02 4.46564287e-01 
353 457.32 6.46716858e+02 4.27451551e-01 
354 458.13 6.45416077e+02 4.54446763e-01 
355 458.93 6.44674377e+02 4.45805401e-01 
356 459.74 6.49305237e+02 4.59671259e-01 
357 460.54 6.58496704e+02 4.66407329e-01 
358 461.34 6.68130859e+02 4.60779250e-01 
359 462.15 6.74366516e+02 4.90728229e-01 
360 462.95 6.74396545e+02 4.90960479e-01 
361 463.76 6.69986084e+02 4.72521156e-01 
362 464.56 6.65914001e+02 4.94868517e-01 
363 465.36 6.63370850e+02 4.74021137e-01 
364 466.17 6.61942383e+02 4.97695655e-01 
365 466.97 6.62832825e+02 4.64753091e-01 
366 467.77 6.66703796e+02 4.68149275e-01 
367 468.58 6.70667969e+02 4.85240966e-01 
368 469.38 6.70753479e+02 4.46189433e-01 
369 470.18 6.71158569e+02 4.68365133e-01 
370 470.99 6.78620728e+02 4.61003035e-01 
371 471.79 6.89602600e+02 4.59316850e-01 
372 472.59 6.98485779e+02 4.57119793e-01 
373 473.40 7.04780518e+02 4.60330486e-01 
374 474.20 7.09447876e+02 4.70993876e-01 
375 475.00 7.12175598e+02 4.79505211e-01 
376 475.81 7.13803894e+02 4.85870749e-01 
377 476.61 7.18118408e+02 4.90238875e-01 
378 477.41 7.25670288e+02 4.99254644e-01 
379 478.21 7.32513794e+02 4.71928060e-01 
380 479.02 7.36916260e+02 4.72128004e-01 
381 479.82 7.39676453e+02 4.80220139e-01 
382 480.62 7.43019165e+02 5.08683980e-01 
383 481.43 7.44764526e+02 4.78393853e-01 
384 482.23 7.43269714e+02 5.05275428e-01 
385 483.03 7.37573914e+02 5.32045364e-01 
386 483.84 7.25652954e+02 5.12160361e-01 
387 484.64 7.01594971e+02 4.96645242e-01 
388 485.44 6.71520142e+02 4.58715975e-01 
389 486.24 6.55277405e+02 4.61017936e-01 
390 487.04 6.60792603e+02 4.56602842e-01 
391 487.85 6.80738037e+02 4.52945530e-01 
392 488.65 7.02619934e+02 4.52963054e-01 
393 489.45 7.17471313e+02 4.87772793e-01 
394 490.26 7.22103333e+02 4.62742686e-01 
395 491.06 7.18323792e+02 4.68496174e-01 
396 491.86 7.12778625e+02 4.88169730e-01 
397 492.66 7.13096924e+02 4.90453601e-01 
398 493.46 7.20869568e+02 4.77359056e-01 
399 494.27 7.29272522e+02 4.63476658e-01 
400 495.07 7.33422729e+02 4.70546365e-01 
401 495.87 7.34920532e+02 4.83611584e-01 
402 496.67 7.31662048e+02 4.49053615e-01 
403 497.48 7.25632996e+02 4.74146336e-01 
404 498.28 7.19754028e+02 4.48473513e-01 
405 499.08 7.12978943e+02 4.88376975e-01 
406 499.88 7.05108398e+02 4.91898656e-01 
407 500.68 6.98209167e+02 4.67327684e-01 
408 501.48 6.95389160e+02 4.52987254e-01 
409 502.29 6.98456604e+02 4.91591603e-01 
410 503.09 7.03369263e+02 5.02995551e-01 
411 503.89 7.09584167e+02 5.17568946e-01 
412 504.69 7.17459290e+02 5.12429595e-01 
413 505.49 7.23707397e+02 4.66394305e-01 
414 506.29 7.24318848e+02 4.62761879e-01 
415 507.09 7.19686890e+02 4.71079648e-01 
416 507.90 7.15427246e+02 4.48665559e-01 
417 508.70 7.14363464e+02 4.63303387e-01 
418 509.50 7.15361389e+02 4.88572180e-01 
419 510.30 7.16966248e+02 4.72959518e-01 
420 511.10 7.15977539e+02 4.85881537e-01 
421 511.90 7.11226746e+02 4.69199121e-01 
422 512.71 7.03369629e+02 4.61244047e-01 
423 513.51 6.95202820e+02 4.64295954e-01 
424 514.31 6.89334106e+02 4.74424571e-01 
425 515.11 6.79357849e+02 4.79176015e-01 
426 515.91 6.61121643e+02 4.75090563e-01 
427 516.71 6.42849548e+02 4.71602768e-01 
428 517.51 6.33379761e+02 4.46593374e-01 
429 518.31 6.39011414e+02 4.43193793e-01 
430 519.11 6.55410889e+02 4.59977835e-01 
431 519.91 6.71389099e+02 5.00624299e-01 
432 520.71 6.83105591e+02 5.07716298e-01 
433 521.52 6.87665894e+02 4.87726420e-01 
434 522.32 6.90171570e+02 4.85142738e-01 
435 523.12 6.95529297e+02 5.09194672e-01 
436 523.92 7.01310242e+02 5.03543794e-01 
437 524.72 7.01231506e+02 5.13268709e-01 
438 525.52 6.90483887e+02 4.65588510e-01 
439 526.32 6.77358032e+02 4.67729777e-01 
440 527.12 6.75903137e+02 4.57364529e-01 
441 527.92 6.86943420e+02 4.86046702e-01 
442 528.72 7.03148743e+02 4.86458868e-01 
443 529.52 7.16123474e+02 4.90584850e-01 
444 530.32 7.21671021e+02 5.02585828e-01 
445 531.12 7.18738525e+02 5.06442249e-01 
446 531.92 7.11281738e+02 4.96770144e-01 
447 532.72 7.04896790e+02 4.57241565e-01 
448 533.52 7.04644592e+02 4.71392691e-01 
449 534.32 7.11005615e+02 4.83229458e-01 
450 535.12 7.16972839e+02 4.87851411e-01 
451 535.92 7.17538391e+02 5.03503084e-01 
452 536.72 7.15457458e+02 4.88612324e-01 
453 537.52 7.12541809e+02 4.89217222e-01 
454 538.32 7.08324585e+02 4.87539828e-01 
455 539.12 7.02197510e+02 5.02614200e-01 
456 539.92 6.96542419e+02 4.88498777e-01 
457 540.72 6.95287903e+02 4.65535522e-01 
458 541.52 6.98322571e+02 4.90349263e-01 
459 542.32 7.04096008e+02 4.71919626e-01 
460 543.12 7.09527344e+02 4.88220632e-01 
461 543.92 7.13356140e+02 4.86854285e-01 
462 544.72 7.15774902e+02 5.16453922e-01 
463 545.52 7.15388489e+02 4.77035850e-01 
464 546.32 7.11727905e+02 4.72085834e-01 
465 547.12 7.07247253e+02 4.59522873e-01 
466 547.91 7.04883972e+02 4.54684317e-01 
