% C0 (TOA Count Rate, /ms) for 4STAR NIR spectrometer (512 channels) derived from 4STAR_20170815starsun.mat and recorded on 2017-08-24 16:30:13.
% Using a high altitude AOD spectra, which has been polyfit to extrapolate to problematic wavelengths, calculating the c0 from the AOD at low airmass. 
Pix Wavelength C0 C0err
511 949.79 4.97078896e+00 1.14526920e-01 
510 949.79 5.12551212e+00 3.07650775e-01 
509 951.68 5.50314999e+00 3.57303619e-01 
508 953.57 5.56467962e+00 3.56837124e-01 
507 955.46 6.01799059e+00 4.00932342e-01 
506 957.34 6.12576723e+00 3.86426240e-01 
505 959.22 6.59522200e+00 4.38626647e-01 
504 961.10 6.67963886e+00 4.44625884e-01 
503 962.98 7.11642790e+00 4.71836299e-01 
502 964.85 7.12299681e+00 4.47124630e-01 
501 966.72 7.62655258e+00 4.99159575e-01 
500 968.59 7.66481113e+00 4.86059427e-01 
499 970.45 8.05717945e+00 5.25148332e-01 
498 972.32 8.00476074e+00 5.27225077e-01 
497 974.18 8.35938454e+00 5.53580642e-01 
496 976.04 8.27815914e+00 5.44568896e-01 
495 977.89 8.63048267e+00 5.55549622e-01 
494 979.74 8.53988838e+00 5.38311839e-01 
493 981.59 8.83005047e+00 5.86155057e-01 
492 983.44 8.72290897e+00 5.58530211e-01 
491 985.29 8.97306919e+00 5.95448315e-01 
490 987.13 8.77401352e+00 5.64158916e-01 
489 988.97 9.01638889e+00 5.83234906e-01 
488 990.81 8.82847977e+00 5.64494312e-01 
487 992.65 9.00548172e+00 5.81216574e-01 
486 994.48 8.81128216e+00 5.84348202e-01 
485 996.31 8.96811485e+00 5.75570464e-01 
484 998.14 8.71246910e+00 5.54892421e-01 
483 999.97 8.85834694e+00 5.76824129e-01 
482 1001.79 8.58307076e+00 5.62111020e-01 
481 1003.62 8.66163158e+00 5.73523045e-01 
480 1005.44 8.44606113e+00 5.59315801e-01 
479 1007.25 8.68764687e+00 5.76219559e-01 
478 1009.07 8.51432133e+00 5.35723984e-01 
477 1010.88 8.67368793e+00 5.75296521e-01 
476 1012.69 8.42375851e+00 5.51537097e-01 
475 1014.50 8.54566956e+00 5.60847402e-01 
474 1016.31 8.32968903e+00 5.45503676e-01 
473 1018.11 8.47821808e+00 5.62341154e-01 
472 1019.91 8.23612213e+00 5.30734777e-01 
471 1021.71 8.39622402e+00 5.35877466e-01 
470 1023.51 8.17580605e+00 5.41461468e-01 
469 1025.30 8.34601593e+00 5.32572031e-01 
468 1027.09 8.23283672e+00 5.45780241e-01 
467 1028.88 8.40894890e+00 5.40834010e-01 
466 1030.67 8.23762608e+00 5.46344459e-01 
465 1032.46 8.42417908e+00 5.58276713e-01 
464 1034.24 8.25962353e+00 5.40782809e-01 
463 1036.02 8.44546509e+00 5.59547126e-01 
462 1037.80 8.33244228e+00 5.47263563e-01 
461 1039.58 8.53907967e+00 5.65655291e-01 
460 1041.35 8.40222263e+00 5.47412753e-01 
459 1043.12 8.56935787e+00 5.49727917e-01 
458 1044.89 8.47082710e+00 5.46400189e-01 
457 1046.66 8.68919659e+00 5.65140545e-01 
456 1048.43 8.60641956e+00 5.69917858e-01 
455 1050.19 8.83743668e+00 5.84891558e-01 
454 1051.95 8.69583988e+00 5.49440145e-01 
453 1053.71 8.92554092e+00 5.91241181e-01 
452 1055.47 8.76070404e+00 5.56127667e-01 
451 1057.23 8.88542271e+00 5.88349998e-01 
450 1058.98 8.73227501e+00 5.73872685e-01 
449 1060.73 8.92875576e+00 5.89827538e-01 
448 1062.48 8.73039627e+00 5.60267746e-01 
447 1064.23 8.86988640e+00 5.77105761e-01 
446 1065.97 8.57107830e+00 5.67033708e-01 
445 1067.71 8.60247040e+00 5.68676174e-01 
444 1069.46 8.41197205e+00 5.57914615e-01 
443 1071.19 8.53064823e+00 5.29274225e-01 
442 1072.93 8.35614872e+00 5.53460777e-01 
441 1074.67 8.46258926e+00 5.52291095e-01 
440 1076.40 8.27171898e+00 5.47592819e-01 
439 1078.13 8.31111526e+00 5.28018653e-01 
438 1079.86 8.08183479e+00 5.19709885e-01 
437 1081.58 8.16854858e+00 5.39602876e-01 
436 1083.31 8.04770565e+00 5.16175151e-01 
435 1085.03 8.22021675e+00 5.44127822e-01 
434 1086.75 8.14745235e+00 5.22805572e-01 
433 1088.47 8.29767895e+00 5.39065242e-01 
432 1090.19 8.18658543e+00 5.37775636e-01 
431 1091.90 8.29705143e+00 5.39951086e-01 
430 1093.61 8.15722466e+00 5.40581882e-01 
429 1095.33 8.36919117e+00 5.50203383e-01 
428 1097.03 8.38588142e+00 5.28590858e-01 
427 1098.74 8.60929298e+00 5.67381978e-01 
426 1100.45 8.61589909e+00 5.61163962e-01 
425 1102.15 8.87916565e+00 5.83365381e-01 
424 1103.85 8.83959103e+00 5.85609019e-01 
423 1105.55 9.08265114e+00 5.69422007e-01 
422 1107.25 9.01143646e+00 5.80341935e-01 
421 1108.94 9.14922237e+00 6.05678320e-01 
420 1110.64 8.93709183e+00 5.53106725e-01 
419 1112.33 8.89551735e+00 5.91446996e-01 
418 1114.02 8.48522282e+00 5.59546590e-01 
417 1115.70 8.40383053e+00 5.55867016e-01 
416 1117.39 8.10867786e+00 5.37165701e-01 
415 1119.07 8.05661201e+00 5.42752266e-01 
414 1120.76 7.87045622e+00 5.10167062e-01 
413 1122.44 7.87485313e+00 5.33875108e-01 
412 1124.12 7.77838755e+00 5.07942855e-01 
411 1125.79 7.96512699e+00 5.36447108e-01 
410 1127.47 8.08934498e+00 5.28297365e-01 
409 1129.14 8.42513371e+00 5.51228821e-01 
408 1130.81 8.05402279e+00 5.41411579e-01 
407 1132.48 7.92060566e+00 5.19488275e-01 
406 1134.15 7.78833914e+00 5.22752941e-01 
405 1135.81 8.14189625e+00 5.41474104e-01 
404 1137.48 8.62671185e+00 5.66227496e-01 
403 1139.14 8.90488243e+00 5.91516376e-01 
402 1140.80 8.66683578e+00 5.55423796e-01 
401 1142.46 8.59773636e+00 5.60466051e-01 
400 1144.12 8.33953285e+00 5.37861884e-01 
399 1145.77 8.37371731e+00 5.61099708e-01 
398 1147.43 8.35617638e+00 5.58844447e-01 
397 1149.08 8.55447960e+00 5.70459962e-01 
396 1150.73 8.52862549e+00 5.52964091e-01 
395 1152.38 8.77035046e+00 5.83632946e-01 
394 1154.02 8.75864983e+00 5.48566818e-01 
393 1155.67 9.00181484e+00 5.97776294e-01 
392 1157.31 8.89215565e+00 5.80132723e-01 
391 1158.95 9.00490952e+00 5.96163452e-01 
390 1160.59 8.94341183e+00 5.82290053e-01 
389 1162.23 9.10535336e+00 6.04035795e-01 
388 1163.87 9.00458622e+00 5.85830808e-01 
387 1165.50 9.09531593e+00 6.02000535e-01 
386 1167.13 8.97721386e+00 5.81578255e-01 
385 1168.76 9.06660652e+00 5.78334033e-01 
384 1170.39 8.93507195e+00 5.91546059e-01 
383 1172.02 8.94857025e+00 5.81698775e-01 
382 1173.65 8.77634048e+00 5.81845343e-01 
381 1175.27 8.76265335e+00 5.59807241e-01 
380 1176.90 8.65108013e+00 5.54267883e-01 
379 1178.52 8.62073135e+00 5.61096668e-01 
378 1180.14 8.41826153e+00 5.45349121e-01 
377 1181.75 8.39147854e+00 5.55335760e-01 
376 1183.37 8.18897724e+00 5.37668407e-01 
375 1184.99 8.22017479e+00 5.33332348e-01 
374 1186.60 8.11117458e+00 5.35240710e-01 
373 1188.21 8.09557247e+00 5.17754912e-01 
372 1189.82 8.01586342e+00 5.15011013e-01 
371 1191.43 8.21679783e+00 5.45028269e-01 
370 1193.04 8.09831142e+00 5.28656185e-01 
369 1194.64 8.06651211e+00 5.26423037e-01 
368 1196.24 7.87739611e+00 4.99058187e-01 
367 1197.85 7.93934298e+00 5.12628138e-01 
366 1199.45 7.79283047e+00 5.16753435e-01 
365 1201.05 7.84050941e+00 5.18375218e-01 
364 1202.64 7.78500080e+00 4.94082004e-01 
363 1204.24 7.81855536e+00 5.12987494e-01 
362 1205.83 7.74382544e+00 5.12425661e-01 
361 1207.43 7.75679064e+00 5.04527390e-01 
360 1209.02 7.71397543e+00 5.03501892e-01 
359 1210.61 7.86623240e+00 5.09936094e-01 
358 1212.19 7.85663033e+00 5.08516788e-01 
357 1213.78 7.99396753e+00 5.29228270e-01 
356 1215.37 7.89605999e+00 5.05901575e-01 
355 1216.95 7.94499588e+00 5.25698662e-01 
354 1218.53 7.89851618e+00 5.16279817e-01 
353 1220.11 7.97298861e+00 5.27941287e-01 
352 1221.69 7.94510412e+00 5.11900723e-01 
351 1223.27 8.00353813e+00 5.18144906e-01 
350 1224.84 7.99328184e+00 5.28806269e-01 
349 1226.42 8.05031013e+00 5.17835200e-01 
348 1227.99 8.02383614e+00 5.28551161e-01 
347 1229.56 8.14913559e+00 5.39119720e-01 
346 1231.13 8.07584476e+00 5.20515501e-01 
345 1232.70 8.13977432e+00 5.37318826e-01 
344 1234.27 8.09037018e+00 5.27124345e-01 
343 1235.84 8.09116268e+00 5.17027617e-01 
342 1237.40 8.01738834e+00 5.15478492e-01 
341 1238.96 8.00443172e+00 5.30228853e-01 
340 1240.52 7.86143732e+00 5.13961494e-01 
339 1242.08 7.98924160e+00 5.28036416e-01 
338 1243.64 7.95855951e+00 5.27452648e-01 
337 1245.20 7.99199343e+00 5.29122710e-01 
336 1246.75 7.94443893e+00 5.08221149e-01 
335 1248.31 8.01052570e+00 5.30503333e-01 
334 1249.86 7.92674112e+00 5.07746756e-01 
333 1251.41 7.93929529e+00 5.24282336e-01 
332 1252.96 7.84343386e+00 5.09947002e-01 
331 1254.51 7.84327984e+00 5.18876791e-01 
330 1256.06 7.74055338e+00 4.91251677e-01 
329 1257.61 7.65184689e+00 5.06353676e-01 
328 1259.15 7.48878908e+00 4.88453180e-01 
327 1260.69 7.38448763e+00 4.82192457e-01 
326 1262.23 7.20483303e+00 4.64290857e-01 
325 1263.77 7.14244175e+00 4.58821267e-01 
324 1265.31 6.89824295e+00 4.57643628e-01 
323 1266.85 6.90713501e+00 4.33425695e-01 
322 1268.39 6.99606228e+00 4.64695305e-01 
321 1269.92 7.15604687e+00 4.74375606e-01 
320 1271.46 7.43188906e+00 4.73333061e-01 
319 1272.99 7.54157639e+00 4.93332863e-01 
318 1274.52 7.58312321e+00 5.00379801e-01 
317 1276.05 7.67642498e+00 5.04923105e-01 
316 1277.58 7.58352995e+00 4.84507531e-01 
315 1279.10 7.45410681e+00 4.88249511e-01 
314 1280.63 7.42859411e+00 4.89528239e-01 
313 1282.15 7.42419481e+00 4.71062690e-01 
312 1283.68 7.50827074e+00 4.97488707e-01 
311 1285.20 7.68142605e+00 5.07079661e-01 
310 1286.72 7.63990402e+00 4.81213033e-01 
309 1288.24 7.65804958e+00 5.04237354e-01 
308 1289.75 7.56781292e+00 4.90354478e-01 
307 1291.27 7.57379484e+00 5.03099263e-01 
306 1292.78 7.62622404e+00 4.95561838e-01 
305 1294.30 7.64084053e+00 5.06641507e-01 
304 1295.81 7.58111858e+00 4.79266316e-01 
303 1297.32 7.57649803e+00 4.89327699e-01 
302 1298.83 7.52666426e+00 4.88320619e-01 
301 1300.34 7.46891594e+00 4.89736885e-01 
300 1301.85 7.41255426e+00 4.91425037e-01 
299 1303.35 7.36236000e+00 4.72166121e-01 
298 1304.86 7.28378344e+00 4.59204614e-01 
297 1306.36 7.27151346e+00 4.83597010e-01 
296 1307.86 7.22596931e+00 4.67370540e-01 
295 1309.36 7.14814854e+00 4.67325717e-01 
294 1310.86 7.05543900e+00 4.68489200e-01 
293 1312.36 6.97651768e+00 4.35179859e-01 
292 1313.86 6.90466356e+00 4.56741273e-01 
291 1315.36 6.89726973e+00 4.56512839e-01 
290 1316.85 6.84801435e+00 4.44899678e-01 
289 1318.34 6.83121920e+00 4.50345904e-01 
288 1319.84 6.78448105e+00 4.31239575e-01 
287 1321.33 6.79020357e+00 4.50490236e-01 
286 1322.82 6.73639393e+00 4.22456026e-01 
285 1324.30 6.71451950e+00 4.34954554e-01 
284 1325.79 6.58269739e+00 4.28587139e-01 
283 1327.28 6.45458031e+00 4.28307950e-01 
282 1328.76 6.25228310e+00 4.05119300e-01 
281 1330.25 6.16139841e+00 4.10488248e-01 
280 1331.73 6.11085510e+00 3.77769947e-01 
279 1333.21 6.10693264e+00 4.04420972e-01 
278 1334.69 6.10472822e+00 3.87480468e-01 
277 1336.17 6.05236673e+00 3.94106418e-01 
276 1337.65 5.98588037e+00 3.97329360e-01 
275 1339.12 5.91664314e+00 3.94602716e-01 
274 1340.60 5.84377193e+00 3.62452596e-01 
273 1342.07 5.72437429e+00 3.78584743e-01 
272 1343.55 5.53947973e+00 3.63401830e-01 
271 1345.02 5.14464521e+00 3.45017552e-01 
270 1346.49 4.89651823e+00 3.08418423e-01 
269 1347.96 4.59829807e+00 3.23755234e-01 
268 1349.43 4.24099541e+00 3.03659976e-01 
267 1350.89 3.89659667e+00 2.89313257e-01 
266 1352.36 3.40522122e+00 2.59497494e-01 
265 1353.82 3.06798458e+00 2.50070333e-01 
264 1355.29 2.71339869e+00 2.22036660e-01 
263 1356.75 2.47124529e+00 2.24617973e-01 
262 1358.21 2.12212849e+00 1.97450221e-01 
261 1359.67 1.79160309e+00 1.74971193e-01 
260 1361.13 1.63765788e+00 1.63488299e-01 
259 1362.59 1.58419681e+00 1.60084292e-01 
258 1364.04 1.72456181e+00 1.68698519e-01 
257 1365.50 1.69093978e+00 1.71983987e-01 
256 1366.95 1.69242501e+00 1.55723155e-01 
255 1368.41 1.60415018e+00 1.58138424e-01 
254 1369.86 1.63191724e+00 1.61360100e-01 
253 1371.31 1.84284043e+00 1.74000710e-01 
252 1372.76 1.94616044e+00 1.49366751e-01 
251 1374.21 2.09629059e+00 1.71297923e-01 
250 1375.65 2.09221649e+00 1.56536013e-01 
249 1377.10 1.87345731e+00 1.42985433e-01 
248 1378.55 1.57768691e+00 1.16141118e-01 
247 1379.99 1.26634634e+00 1.12637639e-01 
246 1381.43 1.08681238e+00 9.38199237e-02 
245 1382.87 1.09242845e+00 1.08099312e-01 
244 1384.32 1.27402258e+00 1.16192713e-01 
243 1385.75 1.49645579e+00 1.31862223e-01 
242 1387.19 1.79352200e+00 1.43767357e-01 
241 1388.63 1.93478489e+00 1.39785662e-01 
240 1390.07 1.96574938e+00 1.53280154e-01 
239 1391.50 1.93261504e+00 1.51877284e-01 
238 1392.94 1.63929260e+00 1.15206219e-01 
237 1394.37 1.67005742e+00 1.41238824e-01 
236 1395.80 1.87692785e+00 1.48705155e-01 
235 1397.23 1.80183280e+00 1.49389416e-01 
234 1398.66 1.92398500e+00 1.28883347e-01 
233 1400.09 2.06223583e+00 1.64274096e-01 
232 1401.52 1.93865931e+00 1.61237925e-01 
231 1402.94 2.10288191e+00 1.69636577e-01 
230 1404.37 2.23139906e+00 1.62624478e-01 
229 1405.79 2.15588212e+00 1.74128935e-01 
228 1407.22 2.22608900e+00 1.66098475e-01 
227 1408.64 2.38397813e+00 1.88779250e-01 
226 1410.06 2.58931756e+00 1.83436036e-01 
225 1411.48 2.61402273e+00 1.99883640e-01 
224 1412.90 2.78037190e+00 1.84765667e-01 
223 1414.32 2.90212488e+00 2.06721336e-01 
222 1415.73 2.87638927e+00 2.08428487e-01 
221 1417.15 2.91126704e+00 2.17268482e-01 
220 1418.56 3.04123425e+00 2.18290925e-01 
219 1419.98 3.00435519e+00 2.18592212e-01 
218 1421.39 3.09686327e+00 2.18366042e-01 
217 1422.80 3.24574709e+00 2.27795139e-01 
216 1424.21 3.30471420e+00 2.23573893e-01 
215 1425.62 3.27503657e+00 2.32218862e-01 
214 1427.03 3.37539744e+00 2.22481743e-01 
213 1428.44 3.20655346e+00 2.15513542e-01 
212 1429.84 3.01639199e+00 1.97394311e-01 
211 1431.25 2.96171522e+00 2.06438199e-01 
210 1432.65 2.92496800e+00 1.95844740e-01 
209 1434.06 2.95387149e+00 1.97617486e-01 
208 1435.46 3.06892204e+00 2.15012491e-01 
207 1436.86 3.09140229e+00 2.14987442e-01 
206 1438.26 3.12436557e+00 2.16756299e-01 
205 1439.66 3.16328597e+00 2.12128058e-01 
204 1441.05 3.30732584e+00 2.10207075e-01 
203 1442.45 3.25269628e+00 2.11071640e-01 
202 1443.85 3.28640604e+00 2.18045563e-01 
201 1445.24 3.39087224e+00 2.17646644e-01 
200 1446.64 3.45642781e+00 2.19499394e-01 
199 1448.03 3.40749550e+00 2.33268350e-01 
198 1449.42 3.51143670e+00 2.16008961e-01 
197 1450.81 3.53114557e+00 2.40022823e-01 
196 1452.20 3.56221843e+00 2.24454373e-01 
195 1453.59 3.73050904e+00 2.50431567e-01 
194 1454.97 3.90310669e+00 2.45274335e-01 
193 1456.36 3.93463469e+00 2.62427509e-01 
192 1457.75 3.97064137e+00 2.51771212e-01 
191 1459.13 3.92734385e+00 2.60398120e-01 
190 1460.51 3.90253162e+00 2.51410455e-01 
189 1461.90 3.76377201e+00 2.21610799e-01 
188 1463.28 3.72117925e+00 2.41291642e-01 
187 1464.66 3.62817025e+00 2.43792564e-01 
186 1466.04 3.65853167e+00 2.40731582e-01 
185 1467.41 3.53739929e+00 2.38693014e-01 
184 1468.79 3.49711204e+00 2.18612701e-01 
183 1470.17 3.45675039e+00 2.30822146e-01 
182 1471.54 3.50509453e+00 2.10898399e-01 
181 1472.92 3.56385660e+00 2.39089668e-01 
180 1474.29 3.67276144e+00 2.33137578e-01 
179 1475.66 3.68858385e+00 2.40040973e-01 
178 1477.03 3.64441562e+00 2.25870863e-01 
177 1478.40 3.61132884e+00 2.41251618e-01 
176 1479.77 3.66432309e+00 2.33979031e-01 
175 1481.14 3.65457797e+00 2.36027762e-01 
174 1482.51 3.75765181e+00 2.49152452e-01 
173 1483.87 3.72426176e+00 2.48321116e-01 
172 1485.24 3.69880104e+00 2.30000049e-01 
171 1486.60 3.65504646e+00 2.27501050e-01 
170 1487.96 3.71930385e+00 2.47704983e-01 
169 1489.32 3.70570421e+00 2.34899819e-01 
168 1490.68 3.84630251e+00 2.37461194e-01 
167 1492.04 3.84470201e+00 2.55229771e-01 
166 1493.40 3.89227104e+00 2.33975604e-01 
165 1494.76 3.86914372e+00 2.56577015e-01 
164 1496.12 3.90918851e+00 2.55884647e-01 
163 1497.47 3.85748410e+00 2.41479456e-01 
162 1498.83 3.92874312e+00 2.60145336e-01 
161 1500.18 3.79646635e+00 2.31956378e-01 
160 1501.53 3.74145937e+00 2.38337696e-01 
159 1502.89 3.62832570e+00 2.34756529e-01 
158 1504.24 3.66014457e+00 2.07574069e-01 
157 1505.59 3.68716121e+00 2.44826362e-01 
156 1506.93 3.79983163e+00 2.34471828e-01 
155 1508.28 3.83395171e+00 2.42687747e-01 
154 1509.63 3.87999821e+00 2.36849219e-01 
153 1510.97 3.82204819e+00 2.41556898e-01 
152 1512.32 3.86611104e+00 2.41164535e-01 
151 1513.66 3.78018737e+00 2.35254467e-01 
150 1515.00 3.82933736e+00 2.44008482e-01 
149 1516.34 3.78010201e+00 2.50703603e-01 
148 1517.69 3.79587293e+00 2.44897813e-01 
147 1519.02 3.73414683e+00 2.47406244e-01 
146 1520.36 3.75425053e+00 2.36284792e-01 
145 1521.70 3.68860793e+00 2.44231999e-01 
144 1523.04 3.74399400e+00 2.24997550e-01 
143 1524.37 3.67675304e+00 2.34882012e-01 
142 1525.71 3.71309924e+00 2.30096728e-01 
141 1527.04 3.64532876e+00 2.41831034e-01 
140 1528.37 3.66146326e+00 2.30364293e-01 
139 1529.70 3.58675194e+00 2.23156661e-01 
138 1531.03 3.62688470e+00 2.28927478e-01 
137 1532.36 3.56513405e+00 2.33619437e-01 
136 1533.69 3.61223078e+00 2.24276274e-01 
135 1535.02 3.55135155e+00 2.31105044e-01 
134 1536.34 3.58761477e+00 2.14998379e-01 
133 1537.67 3.54033065e+00 2.34512940e-01 
132 1538.99 3.56606793e+00 2.15699777e-01 
131 1540.31 3.49740958e+00 2.31734782e-01 
130 1541.64 3.54616952e+00 1.98784322e-01 
129 1542.96 3.51370597e+00 2.32450143e-01 
128 1544.28 3.56372190e+00 2.27670178e-01 
127 1545.60 3.48390293e+00 2.28554621e-01 
126 1546.91 3.52465773e+00 2.30902433e-01 
125 1548.23 3.43320560e+00 2.27902487e-01 
124 1549.55 3.47113514e+00 2.30931461e-01 
123 1550.86 3.39979076e+00 2.12807983e-01 
122 1552.18 3.42202449e+00 2.11194158e-01 
121 1553.49 3.34540629e+00 2.21827105e-01 
120 1554.80 3.38132048e+00 2.11358190e-01 
119 1556.11 3.31008792e+00 2.18856320e-01 
118 1557.42 3.36062431e+00 2.13066757e-01 
117 1558.73 3.28261805e+00 2.19035462e-01 
116 1560.04 3.31012750e+00 2.03911543e-01 
115 1561.34 3.22186494e+00 2.06512153e-01 
114 1562.65 3.27067995e+00 2.00191751e-01 
113 1563.95 3.18996596e+00 2.12038949e-01 
112 1565.26 3.23572350e+00 2.15819687e-01 
111 1566.56 3.11339641e+00 1.97413132e-01 
110 1567.86 3.11525083e+00 2.01720834e-01 
109 1569.16 2.98450565e+00 1.98728368e-01 
108 1570.46 2.95428801e+00 1.60244241e-01 
107 1571.76 2.85326290e+00 1.88841522e-01 
106 1573.05 2.83714843e+00 1.55766025e-01 
105 1574.35 2.75554800e+00 1.82609424e-01 
104 1575.64 2.78615904e+00 1.41613677e-01 
103 1576.94 2.75690150e+00 1.81789711e-01 
102 1578.23 2.81906509e+00 1.71589002e-01 
101 1579.52 2.80118680e+00 1.82785064e-01 
100 1580.81 2.88445926e+00 1.76544368e-01 
99 1582.10 2.84092641e+00 1.81761518e-01 
98 1583.39 2.91791129e+00 1.83531642e-01 
97 1584.68 2.86860323e+00 1.89926207e-01 
96 1585.97 2.87997103e+00 1.62388980e-01 
95 1587.25 2.78726816e+00 1.83154732e-01 
94 1588.54 2.79409099e+00 1.77635968e-01 
93 1589.82 2.72339630e+00 1.73653498e-01 
92 1591.10 2.80709815e+00 1.72257110e-01 
91 1592.38 2.76034641e+00 1.63824126e-01 
90 1593.66 2.81094575e+00 1.69642180e-01 
89 1594.94 2.74019217e+00 1.81244895e-01 
88 1596.22 2.75760078e+00 1.65989742e-01 
87 1597.50 2.66437101e+00 1.76434621e-01 
86 1598.77 2.66492033e+00 1.49673343e-01 
85 1600.05 2.55776763e+00 1.69378236e-01 
84 1601.32 2.57214403e+00 1.63085327e-01 
83 1602.59 2.49464774e+00 1.57422468e-01 
82 1603.86 2.56567359e+00 1.68208495e-01 
81 1605.13 2.46748137e+00 1.41240820e-01 
80 1606.40 2.52331066e+00 1.49899468e-01 
79 1607.67 2.43070507e+00 1.59698159e-01 
78 1608.94 2.46302509e+00 1.47292912e-01 
77 1610.20 2.42146778e+00 1.54690132e-01 
76 1611.47 2.49750876e+00 1.51838377e-01 
75 1612.73 2.45849872e+00 1.55332595e-01 
74 1614.00 2.50691080e+00 1.48234278e-01 
73 1615.26 2.43949103e+00 1.61691368e-01 
72 1616.52 2.46304274e+00 1.53021485e-01 
71 1617.78 2.36863136e+00 1.44987822e-01 
70 1619.03 2.40305448e+00 1.48199409e-01 
69 1620.29 2.34187341e+00 1.51467234e-01 
68 1621.55 2.40677238e+00 1.50172189e-01 
67 1622.80 2.34529400e+00 1.53576925e-01 
66 1624.06 2.41441369e+00 1.58913985e-01 
65 1625.31 2.31931806e+00 1.35070711e-01 
64 1626.56 2.36927199e+00 1.53886855e-01 
63 1627.81 2.27896285e+00 1.48191735e-01 
62 1629.06 2.29717469e+00 1.29826352e-01 
61 1630.31 2.21278095e+00 1.47230804e-01 
60 1631.56 2.24774981e+00 1.23013489e-01 
59 1632.80 2.16008234e+00 1.39567763e-01 
58 1634.05 2.19013977e+00 1.38048872e-01 
57 1635.29 2.08523035e+00 1.22775808e-01 
56 1636.53 2.10199904e+00 1.37079597e-01 
55 1637.77 1.97833860e+00 1.25125855e-01 
54 1639.01 1.98705804e+00 1.13556229e-01 
53 1640.25 1.91316283e+00 1.27452716e-01 
