% C0 (TOA Count Rate, /ms) for 4STAR NIR spectrometer (512 channels) derived from (SEE Original files for sources) and recorded on 2018-09-10 11:23:37.
% Langley at MLO outside of 1.8x the STD of 501 nm Langley residuals were screened out. 
% c0 from best days at MLO
% Averages of c0 from multiple days including: 2018-08-11 AM, 2018-08-12 AM.
% C:\_star\IOP\MLO\MLO_2018_Aug\starmat\20180811_4STAR_NIR_C0_refined_ground_langley_am.dat
% C:\_star\IOP\MLO\MLO_2018_Aug\starmat\20180812_4STAR_NIR_C0_refined_ground_langley_am.dat
Pix Wavelength C0 C0err
511 949.79 3.99931061e+00 2.14463903e-01 
510 949.79 4.59346676e+00 1.57020952e-01 
509 951.68 4.96644091e+00 1.64437788e-01 
508 953.57 5.03366685e+00 1.53219984e-01 
507 955.46 5.48225284e+00 1.68993012e-01 
506 957.34 5.60501718e+00 1.66330345e-01 
505 959.22 6.08900547e+00 1.52032780e-01 
504 961.10 6.24758362e+00 1.46657885e-01 
503 962.98 6.73052168e+00 1.48041983e-01 
502 964.85 6.77153015e+00 1.16862760e-01 
501 966.72 7.33991909e+00 1.10201531e-01 
500 968.59 7.43786215e+00 8.42785228e-02 
499 970.45 7.85919380e+00 8.46423363e-02 
498 972.32 7.81471372e+00 9.75436551e-02 
497 974.18 8.13807631e+00 1.04114848e-01 
496 976.04 8.05468178e+00 8.80619613e-02 
495 977.89 8.40413237e+00 8.76593771e-02 
494 979.74 8.34700489e+00 6.88416535e-02 
493 981.59 8.64299440e+00 5.80446350e-02 
492 983.44 8.56076098e+00 5.99301211e-02 
491 985.29 8.82337951e+00 4.12621061e-02 
490 987.13 8.60154105e+00 2.03903079e-02 
489 988.97 8.82578611e+00 1.54324853e-02 
488 990.81 8.59417009e+00 3.21192649e-03 
487 992.65 8.77779150e+00 1.88146972e-04 
486 994.48 8.58238506e+00 2.44518939e-03 
485 996.31 8.75056648e+00 2.35644749e-02 
484 998.14 8.50572681e+00 5.75888976e-04 
483 999.97 8.67283726e+00 1.62855389e-02 
482 1001.79 8.39757585e+00 1.14362996e-02 
481 1003.62 8.50553561e+00 2.29568793e-02 
480 1005.44 8.28487062e+00 1.30345023e-02 
479 1007.25 8.55163479e+00 3.12156390e-02 
478 1009.07 8.35937786e+00 2.10869142e-02 
477 1010.88 8.51640988e+00 1.52578299e-02 
476 1012.69 8.24800158e+00 1.59483692e-03 
475 1014.50 8.36167240e+00 1.53724731e-02 
474 1016.31 8.13750792e+00 2.29076434e-03 
473 1018.11 8.29345226e+00 9.30197556e-03 
472 1019.91 8.05171346e+00 1.47419531e-02 
471 1021.71 8.19610929e+00 8.63503952e-03 
470 1023.51 7.97332478e+00 1.79309552e-03 
469 1025.30 8.12774801e+00 8.43678799e-03 
468 1027.09 8.01545572e+00 5.97001770e-03 
467 1028.88 8.17236281e+00 2.82977275e-02 
466 1030.67 8.00532055e+00 1.97179554e-03 
465 1032.46 8.15509177e+00 1.15886953e-02 
464 1034.24 7.98466611e+00 7.41144073e-03 
463 1036.02 8.16253328e+00 1.36454638e-02 
462 1037.80 8.03946877e+00 2.23142323e-02 
461 1039.58 8.24497175e+00 1.64197407e-02 
460 1041.35 8.14753199e+00 1.24013094e-03 
459 1043.12 8.32985878e+00 1.05684038e-02 
458 1044.89 8.24639654e+00 4.09532206e-03 
457 1046.66 8.44805860e+00 1.02359576e-02 
456 1048.43 8.35578203e+00 1.92735813e-02 
455 1050.19 8.60123014e+00 3.72490488e-02 
454 1051.95 8.44046545e+00 3.19661904e-02 
453 1053.71 8.70747185e+00 1.37176170e-02 
452 1055.47 8.54319811e+00 1.99236599e-02 
451 1057.23 8.68801451e+00 1.60866086e-02 
450 1058.98 8.54897356e+00 2.33932136e-03 
449 1060.73 8.72601891e+00 2.07698475e-04 
448 1062.48 8.51858855e+00 1.06675331e-02 
447 1064.23 8.64787388e+00 2.08495384e-02 
446 1065.97 8.36180305e+00 1.47803914e-02 
445 1067.71 8.41873693e+00 3.72173633e-03 
444 1069.46 8.22101831e+00 6.08734793e-03 
443 1071.19 8.31502390e+00 3.90785391e-03 
442 1072.93 8.14695644e+00 4.73528198e-03 
441 1074.67 8.25647783e+00 8.84005099e-03 
440 1076.40 8.04690838e+00 1.38551846e-02 
439 1078.13 8.10136509e+00 6.02329113e-03 
438 1079.86 7.85336422e+00 4.28448020e-03 
437 1081.58 7.91601228e+00 5.22081685e-03 
436 1083.31 7.78236675e+00 3.20788184e-03 
435 1085.03 7.98342824e+00 1.57457265e-02 
434 1086.75 7.91105008e+00 1.87695131e-02 
433 1088.47 8.07704306e+00 1.87502869e-02 
432 1090.19 8.01199650e+00 3.48460030e-02 
431 1091.90 8.10999059e+00 4.14259710e-02 
430 1093.61 7.96180368e+00 4.40717807e-02 
429 1095.33 8.17171144e+00 6.25776137e-02 
428 1097.03 8.18528413e+00 6.98376629e-02 
427 1098.74 8.43437624e+00 9.00519719e-02 
426 1100.45 8.42250204e+00 1.02389868e-01 
425 1102.15 8.68342828e+00 1.24753994e-01 
424 1103.85 8.63222742e+00 1.26868759e-01 
423 1105.55 8.80599403e+00 1.15971940e-01 
422 1107.25 8.64491940e+00 1.10753831e-01 
421 1108.94 8.68594980e+00 1.47591521e-01 
420 1110.64 8.32310295e+00 1.61421758e-01 
419 1112.33 8.11521792e+00 2.26846142e-01 
418 1114.02 7.44279552e+00 2.73785587e-01 
417 1115.70 7.23093295e+00 3.29378301e-01 
416 1117.39 6.89697862e+00 3.74026982e-01 
415 1119.07 6.80642938e+00 4.05824244e-01 
414 1120.76 6.57980823e+00 4.11608151e-01 
413 1122.44 6.54964447e+00 4.26660977e-01 
412 1124.12 6.48090147e+00 4.26806973e-01 
411 1125.79 6.81870389e+00 4.70180458e-01 
410 1127.47 7.00027966e+00 4.49919635e-01 
409 1129.14 7.53684831e+00 4.25143349e-01 
408 1130.81 7.02281427e+00 3.99412532e-01 
407 1132.48 6.70257330e+00 3.93588178e-01 
406 1134.15 6.58948636e+00 3.83212970e-01 
405 1135.81 6.99940753e+00 3.11679991e-01 
404 1137.48 7.83616066e+00 2.79575893e-01 
403 1139.14 8.26549149e+00 2.62231618e-01 
402 1140.80 7.96472597e+00 2.98554116e-01 
401 1142.46 7.76136112e+00 3.46575222e-01 
400 1144.12 7.33975053e+00 3.76747978e-01 
399 1145.77 7.32539582e+00 4.15024064e-01 
398 1147.43 7.32021427e+00 3.79438972e-01 
397 1149.08 7.63169813e+00 3.31818427e-01 
396 1150.73 7.67749834e+00 3.33761910e-01 
395 1152.38 7.98467422e+00 3.08373658e-01 
394 1154.02 8.06423211e+00 3.06498291e-01 
393 1155.67 8.40844250e+00 2.68836200e-01 
392 1157.31 8.37365341e+00 2.39322616e-01 
391 1158.95 8.54263878e+00 1.92591542e-01 
390 1160.59 8.54075098e+00 1.57647420e-01 
389 1162.23 8.76217270e+00 1.56409991e-01 
388 1163.87 8.72524643e+00 1.35712855e-01 
387 1165.50 8.81300831e+00 1.25565236e-01 
386 1167.13 8.72686386e+00 1.26334003e-01 
385 1168.76 8.86700773e+00 1.15252409e-01 
384 1170.39 8.68453503e+00 8.53470319e-02 
383 1172.02 8.66874218e+00 8.90964161e-02 
382 1173.65 8.49157715e+00 6.72542341e-02 
381 1175.27 8.51216746e+00 7.82832190e-02 
380 1176.90 8.43729066e+00 7.80444997e-02 
379 1178.52 8.36243105e+00 7.51353564e-02 
378 1180.14 8.13310957e+00 7.88860912e-02 
377 1181.75 8.13349485e+00 9.33630206e-02 
376 1183.37 7.95458650e+00 8.90674176e-02 
375 1184.99 7.99494124e+00 1.03114122e-01 
374 1186.60 7.85906195e+00 6.56577143e-02 
373 1188.21 7.86719608e+00 6.00123929e-02 
372 1189.82 7.79383444e+00 4.03682524e-02 
371 1191.43 8.03258514e+00 5.39290897e-02 
370 1193.04 7.94262529e+00 6.40864806e-02 
369 1194.64 7.92057681e+00 5.78143515e-02 
368 1196.24 7.71023178e+00 5.51975332e-02 
367 1197.85 7.74446130e+00 5.67117882e-02 
366 1199.45 7.59573531e+00 4.51055567e-02 
365 1201.05 7.66869212e+00 5.57896149e-02 
364 1202.64 7.62429452e+00 5.98690907e-02 
363 1204.24 7.67250466e+00 5.73578151e-02 
362 1205.83 7.58222056e+00 4.06578833e-02 
361 1207.43 7.61709786e+00 4.38043954e-02 
360 1209.02 7.53559780e+00 2.89727528e-02 
359 1210.61 7.66510224e+00 3.18431255e-02 
358 1212.19 7.63860559e+00 1.85412378e-02 
357 1213.78 7.81353092e+00 3.42117777e-02 
356 1215.37 7.74628568e+00 2.69385834e-02 
355 1216.95 7.83394527e+00 3.21974921e-02 
354 1218.53 7.80202412e+00 3.01815307e-02 
353 1220.11 7.87535477e+00 1.80246893e-02 
352 1221.69 7.84475422e+00 2.63778548e-02 
351 1223.27 7.89898705e+00 1.20556827e-02 
350 1224.84 7.87674880e+00 2.65103666e-02 
349 1226.42 7.88994813e+00 5.50168674e-03 
348 1227.99 7.84551621e+00 1.14632687e-02 
347 1229.56 7.97571850e+00 2.94488761e-03 
346 1231.13 7.96025013e+00 8.41015128e-03 
345 1232.70 8.04180193e+00 6.27347965e-03 
344 1234.27 7.98168993e+00 3.74871246e-03 
343 1235.84 7.98037886e+00 4.25683232e-03 
342 1237.40 7.91756368e+00 1.40821093e-02 
341 1238.96 7.93366242e+00 2.62483765e-02 
340 1240.52 7.76501561e+00 1.16466922e-02 
339 1242.08 7.88603520e+00 1.20037599e-02 
338 1243.64 7.86373782e+00 1.22765051e-03 
337 1245.20 7.93746639e+00 2.40038074e-02 
336 1246.75 7.89650464e+00 1.34151733e-02 
335 1248.31 7.96167851e+00 1.58708208e-02 
334 1249.86 7.89460421e+00 1.72437959e-02 
333 1251.41 7.92206454e+00 1.08020672e-02 
332 1252.96 7.81045747e+00 1.51138559e-02 
331 1254.51 7.84464550e+00 3.48227321e-02 
330 1256.06 7.76380706e+00 2.07311900e-02 
329 1257.61 7.74007082e+00 3.06626956e-03 
328 1259.15 7.62698627e+00 2.43598640e-02 
327 1260.69 7.55760359e+00 3.94147189e-02 
326 1262.23 7.44622183e+00 1.84711140e-02 
325 1263.77 7.43079233e+00 2.61357697e-02 
324 1265.31 7.26713180e+00 2.83914616e-02 
323 1266.85 7.28576159e+00 1.24130898e-02 
322 1268.39 7.32519698e+00 1.44044440e-02 
321 1269.92 7.41415811e+00 1.19343008e-02 
320 1271.46 7.56965613e+00 1.62956293e-03 
319 1272.99 7.63916612e+00 4.10173552e-03 
318 1274.52 7.62917495e+00 1.98673530e-02 
317 1276.05 7.70711136e+00 2.44323636e-02 
316 1277.58 7.58655024e+00 5.46020785e-03 
315 1279.10 7.45168137e+00 7.41076898e-03 
314 1280.63 7.36015225e+00 9.35659956e-03 
313 1282.15 7.36431480e+00 1.14872113e-02 
312 1283.68 7.45799351e+00 2.72612574e-02 
311 1285.20 7.66488982e+00 2.78546827e-02 
310 1286.72 7.61861968e+00 1.83554597e-02 
309 1288.24 7.60229278e+00 5.47237009e-04 
308 1289.75 7.49945688e+00 5.72590323e-03 
307 1291.27 7.50291181e+00 4.55759312e-03 
306 1292.78 7.49198151e+00 1.06702343e-02 
305 1294.30 7.48049712e+00 8.08511550e-03 
304 1295.81 7.41804839e+00 1.35375664e-02 
303 1297.32 7.41283441e+00 1.67498323e-02 
302 1298.83 7.35888362e+00 3.71307003e-02 
301 1300.34 7.30086327e+00 5.13092307e-02 
300 1301.85 7.21881819e+00 3.73461558e-02 
299 1303.35 7.17178750e+00 4.69606867e-02 
298 1304.86 7.05522251e+00 4.42454249e-02 
297 1306.36 7.02357506e+00 4.10803655e-02 
296 1307.86 6.94356751e+00 5.35490905e-02 
295 1309.36 6.86283994e+00 5.94584101e-02 
294 1310.86 6.74285102e+00 6.30176321e-02 
293 1312.36 6.66475987e+00 6.84380581e-02 
292 1313.86 6.61523533e+00 7.18546496e-02 
291 1315.36 6.61486602e+00 8.14745828e-02 
290 1316.85 6.57398582e+00 8.88074569e-02 
289 1318.34 6.54824328e+00 1.05598089e-01 
288 1319.84 6.46562767e+00 1.20383544e-01 
287 1321.33 6.48780370e+00 1.31182910e-01 
286 1322.82 6.45734382e+00 1.15135411e-01 
285 1324.30 6.42968249e+00 1.33676656e-01 
284 1325.79 6.22305179e+00 1.13781988e-01 
283 1327.28 6.03813290e+00 1.32009659e-01 
282 1328.76 5.76084900e+00 1.62008445e-01 
281 1330.25 5.65037894e+00 1.97998815e-01 
280 1331.73 5.59397649e+00 1.96891868e-01 
279 1333.21 5.59234929e+00 2.07286628e-01 
278 1334.69 5.62008858e+00 1.96897263e-01 
277 1336.17 5.60606957e+00 1.76270937e-01 
276 1337.65 5.47603440e+00 1.55873544e-01 
275 1339.12 5.43192387e+00 1.82160027e-01 
274 1340.60 5.25257397e+00 1.55165815e-01 
273 1342.07 5.01528788e+00 1.96235051e-01 
272 1343.55 4.78763246e+00 2.10053826e-01 
271 1345.02 4.20327473e+00 2.68550953e-01 
270 1346.49 3.82589495e+00 3.05684517e-01 
269 1347.96 3.35889756e+00 2.98532033e-01 
268 1349.43 2.86261499e+00 3.25465214e-01 
267 1350.89 2.48620356e+00 3.87789613e-01 
266 1352.36 1.86835515e+00 3.26682421e-01 
265 1353.82 1.54364199e+00 3.23585208e-01 
264 1355.29 4.48924944e-01 7.33925199e-02 
263 1356.75 7.85033494e-01 1.71023271e-01 
262 1358.21 6.16706967e-01 2.67504277e-01 
261 1359.67 2.28975207e-01 7.38819460e-03 
260 1361.13 1.05523132e-01 2.96308464e-02 
259 1362.59 1.49072767e-01 5.88643980e-03 
258 1364.04 5.12589157e-01 2.67725464e-01 
257 1365.50 3.80007103e-01 1.13767431e-01 
256 1366.95 2.39818320e-01 1.92724683e-02 
255 1368.41 1.67207233e-01 1.13427706e-04 
254 1369.86 3.12210888e-01 1.51733923e-01 
253 1371.31 4.81312573e-01 9.48886558e-02 
252 1372.76 3.35065842e-01 2.81081543e-02 
251 1374.21 1.07461622e+00 5.16702281e-01 
250 1375.65 1.05964306e+00 4.60921094e-01 
249 1377.10 8.41625185e-01 4.00465068e-01 
248 1378.55 3.68743151e-01 7.24059673e-02 
247 1379.99 5.87055862e-01 2.23784256e-01 
246 1381.43 1.61962569e-01 1.70366412e-02 
245 1382.87 1.05441541e-01 5.57289875e-03 
244 1384.32 4.03331786e-01 1.64104360e-01 
243 1385.75 6.29231661e-01 1.29800535e-01 
242 1387.19 9.89645956e-01 2.85416770e-01 
241 1388.63 5.64498320e-01 1.02561300e-01 
240 1390.07 1.36417276e+00 3.36136877e-01 
239 1391.50 1.29203724e+00 2.29525666e-01 
238 1392.94 3.25923234e-01 2.56126401e-02 
237 1394.37 8.48868011e-01 2.18885610e-01 
236 1395.80 1.06972280e+00 2.57664547e-01 
235 1397.23 1.03408820e+00 1.98990362e-01 
234 1398.66 4.05560404e-01 2.96330704e-02 
233 1400.09 1.22117555e+00 2.56526793e-01 
232 1401.52 9.88710374e-01 1.74931381e-01 
231 1402.94 1.23768634e+00 2.00807733e-01 
230 1404.37 1.31628582e+00 4.73126067e-01 
229 1405.79 1.35510778e+00 2.07500068e-01 
228 1407.22 1.26337426e+00 3.63562339e-01 
227 1408.64 1.49856371e+00 2.37320557e-01 
226 1410.06 1.58321106e+00 2.87955526e-01 
225 1411.48 1.58056522e+00 2.37387237e-01 
224 1412.90 1.67772925e+00 3.15575202e-01 
223 1414.32 1.91761911e+00 2.82510500e-01 
222 1415.73 1.84189558e+00 2.31372042e-01 
221 1417.15 1.88949883e+00 2.77654840e-01 
220 1418.56 2.03982490e+00 2.59177581e-01 
219 1419.98 2.03526878e+00 2.73520570e-01 
218 1421.39 2.16423511e+00 2.92167011e-01 
217 1422.80 2.40694571e+00 2.57565802e-01 
216 1424.21 2.47813165e+00 2.67672783e-01 
215 1425.62 2.39195776e+00 2.40291657e-01 
214 1427.03 2.49362445e+00 2.36185205e-01 
213 1428.44 2.39255345e+00 2.06879829e-01 
212 1429.84 2.24742019e+00 1.84520080e-01 
211 1431.25 2.31050730e+00 1.81544009e-01 
210 1432.65 2.33435881e+00 1.86858051e-01 
209 1434.06 2.40807259e+00 2.15318300e-01 
208 1435.46 2.49595404e+00 2.21275003e-01 
207 1436.86 2.52022446e+00 1.74925101e-01 
206 1438.26 2.56009615e+00 2.07177896e-01 
205 1439.66 2.61055255e+00 2.12234339e-01 
204 1441.05 2.79857170e+00 2.07733554e-01 
203 1442.45 2.75141251e+00 2.03650373e-01 
202 1443.85 2.71890068e+00 2.19566201e-01 
201 1445.24 2.83147478e+00 2.13013203e-01 
200 1446.64 2.85778391e+00 1.80770696e-01 
199 1448.03 2.73904944e+00 1.88101046e-01 
198 1449.42 2.81260610e+00 1.93925739e-01 
197 1450.81 2.88937378e+00 1.94559964e-01 
196 1452.20 2.94270372e+00 1.80814028e-01 
195 1453.59 3.25033498e+00 1.78777157e-01 
194 1454.97 3.49999356e+00 1.38043069e-01 
193 1456.36 3.57553005e+00 1.38310447e-01 
192 1457.75 3.60435987e+00 1.21724140e-01 
191 1459.13 3.57333731e+00 1.50181695e-01 
190 1460.51 3.49114788e+00 1.48131170e-01 
189 1461.90 3.34109915e+00 1.58722498e-01 
188 1463.28 3.22545445e+00 1.34534263e-01 
187 1464.66 3.08742380e+00 1.50696221e-01 
186 1466.04 3.11025786e+00 1.34622765e-01 
185 1467.41 2.96840310e+00 1.81401046e-01 
184 1468.79 2.88713109e+00 2.05487628e-01 
183 1470.17 2.84881640e+00 2.08902713e-01 
182 1471.54 2.86696470e+00 2.06486685e-01 
181 1472.92 2.96384144e+00 1.75616474e-01 
180 1474.29 3.11530912e+00 1.56967848e-01 
179 1475.66 3.16392660e+00 1.55761270e-01 
178 1477.03 3.10414672e+00 1.54303654e-01 
177 1478.40 3.05937386e+00 1.67712088e-01 
176 1479.77 3.13912845e+00 1.59050405e-01 
175 1481.14 3.18508256e+00 1.39096227e-01 
174 1482.51 3.29358769e+00 1.29208074e-01 
173 1483.87 3.30028212e+00 1.38451550e-01 
172 1485.24 3.26953208e+00 1.21499082e-01 
171 1486.60 3.23813474e+00 1.21580004e-01 
170 1487.96 3.30919981e+00 9.01150176e-02 
169 1489.32 3.36109698e+00 8.43518569e-02 
168 1490.68 3.54276824e+00 7.94488350e-02 
167 1492.04 3.56780529e+00 7.00001772e-02 
166 1493.40 3.62294948e+00 7.59585701e-02 
165 1494.76 3.62505639e+00 6.95171809e-02 
164 1496.12 3.66870356e+00 7.17835005e-02 
163 1497.47 3.65848148e+00 5.64944801e-02 
162 1498.83 3.77839255e+00 5.56476632e-02 
161 1500.18 3.64773667e+00 4.72538673e-02 
160 1501.53 3.58777403e+00 5.81522001e-02 
159 1502.89 3.47204983e+00 5.39164395e-02 
158 1504.24 3.49092698e+00 5.52801444e-02 
157 1505.59 3.51061475e+00 5.88681881e-02 
156 1506.93 3.63913870e+00 4.25764125e-02 
155 1508.28 3.71859931e+00 5.86765056e-02 
154 1509.63 3.74038589e+00 2.43779023e-02 
153 1510.97 3.71487010e+00 1.70932387e-02 
152 1512.32 3.79119002e+00 2.00941009e-02 
151 1513.66 3.73685050e+00 2.51508831e-02 
150 1515.00 3.76958049e+00 3.58094784e-02 
149 1516.34 3.72176350e+00 3.27135386e-02 
148 1517.69 3.74193465e+00 2.97268469e-02 
147 1519.02 3.68804991e+00 3.01486502e-02 
146 1520.36 3.71197379e+00 2.75766836e-02 
145 1521.70 3.66474462e+00 2.78233296e-02 
144 1523.04 3.70037115e+00 1.84352001e-02 
143 1524.37 3.64801085e+00 1.37798283e-02 
142 1525.71 3.68711567e+00 7.71658559e-03 
141 1527.04 3.64712190e+00 2.18728704e-02 
140 1528.37 3.68229580e+00 1.47409419e-02 
139 1529.70 3.60383713e+00 9.43229534e-03 
138 1531.03 3.63567614e+00 8.18992287e-04 
137 1532.36 3.57373130e+00 4.86020654e-03 
136 1533.69 3.60547698e+00 2.71932055e-04 
135 1535.02 3.54315114e+00 5.90899439e-03 
134 1536.34 3.56977678e+00 1.46350668e-02 
133 1537.67 3.50101876e+00 1.73334782e-02 
132 1538.99 3.54174125e+00 2.33697518e-02 
131 1540.31 3.49458492e+00 3.53485650e-02 
130 1541.64 3.52218997e+00 2.46156103e-02 
129 1542.96 3.50140143e+00 2.14726338e-02 
128 1544.28 3.50879824e+00 8.62543701e-03 
127 1545.60 3.42404807e+00 6.82053988e-03 
126 1546.91 3.47167134e+00 1.13459526e-03 
125 1548.23 3.39745498e+00 1.25284048e-02 
124 1549.55 3.43417871e+00 2.04580134e-03 
123 1550.86 3.38309145e+00 7.12449680e-03 
122 1552.18 3.41753507e+00 1.10273020e-02 
121 1553.49 3.36791837e+00 2.49109759e-02 
120 1554.80 3.39074052e+00 7.13040114e-03 
119 1556.11 3.31392848e+00 1.02937777e-02 
118 1557.42 3.33479357e+00 2.28807026e-03 
117 1558.73 3.27250839e+00 9.12024205e-03 
116 1560.04 3.28912687e+00 3.76759221e-03 
115 1561.34 3.21846878e+00 1.57738764e-02 
114 1562.65 3.27565085e+00 2.25096201e-02 
113 1563.95 3.19564056e+00 1.95756926e-02 
112 1565.26 3.23634267e+00 4.92376837e-03 
111 1566.56 3.12146711e+00 2.44721879e-03 
110 1567.86 3.12462843e+00 2.63687897e-03 
109 1569.16 3.03959608e+00 1.31997178e-02 
108 1570.46 3.02441001e+00 2.55106449e-03 
107 1571.76 2.96196687e+00 1.76468821e-02 
106 1573.05 2.92781282e+00 1.15887023e-03 
105 1574.35 2.84395039e+00 7.12961625e-04 
104 1575.64 2.84516072e+00 8.12925311e-04 
103 1576.94 2.82964886e+00 1.90195249e-02 
102 1578.23 2.86614954e+00 9.79340771e-03 
101 1579.52 2.84361279e+00 3.23164770e-03 
100 1580.81 2.88198936e+00 1.31169439e-02 
99 1582.10 2.83135605e+00 1.84767002e-04 
98 1583.39 2.87327719e+00 1.34397877e-02 
97 1584.68 2.80403578e+00 1.53382492e-02 
96 1585.97 2.79687655e+00 6.39603539e-03 
95 1587.25 2.70267749e+00 1.21190748e-02 
94 1588.54 2.72076547e+00 1.04707948e-02 
93 1589.82 2.65950025e+00 9.33114372e-03 
92 1591.10 2.73962581e+00 1.85623167e-02 
91 1592.38 2.71447587e+00 2.56522784e-03 
90 1593.66 2.77486778e+00 5.71140754e-03 
89 1594.94 2.69727028e+00 5.78945798e-03 
88 1596.22 2.71799028e+00 4.77793466e-03 
87 1597.50 2.64612675e+00 2.55510914e-03 
86 1598.77 2.63884998e+00 2.20320119e-02 
85 1600.05 2.55550766e+00 8.89332441e-03 
84 1601.32 2.57055759e+00 2.40611255e-02 
83 1602.59 2.51045716e+00 1.78687439e-02 
82 1603.86 2.56061876e+00 3.06011420e-02 
81 1605.13 2.47955001e+00 3.79473804e-03 
80 1606.40 2.53462053e+00 5.36478379e-03 
79 1607.67 2.44974709e+00 8.48634911e-03 
78 1608.94 2.48939669e+00 7.41161044e-03 
77 1610.20 2.43749619e+00 6.15006830e-03 
76 1611.47 2.47960043e+00 1.52655869e-02 
75 1612.73 2.42463148e+00 8.36210337e-03 
74 1614.00 2.45315493e+00 2.35140653e-02 
73 1615.26 2.39397442e+00 1.53234141e-02 
72 1616.52 2.43334413e+00 3.59900381e-03 
71 1617.78 2.33688295e+00 9.42487779e-03 
70 1619.03 2.36277795e+00 1.93271941e-02 
69 1620.29 2.31876349e+00 6.73607597e-03 
68 1621.55 2.36589039e+00 2.18000314e-03 
67 1622.80 2.30483711e+00 7.66280305e-03 
66 1624.06 2.37356913e+00 1.99422497e-03 
65 1625.31 2.30318928e+00 9.31748949e-03 
64 1626.56 2.35211825e+00 2.76179645e-03 
63 1627.81 2.27648509e+00 1.02219568e-02 
62 1629.06 2.29362690e+00 1.71099335e-03 
61 1630.31 2.21625221e+00 2.61833156e-03 
60 1631.56 2.23708224e+00 3.14685145e-03 
59 1632.80 2.17308963e+00 6.00963689e-03 
