% C0 (TOA Count Rate, /ms) for 4STAR NIR spectrometer (512 channels) derived from (SEE Original files for sources) and recorded on 2019-04-30 12:22:48.
% Langley at MLO and airborne Data outside 2.0x the STD of 501 nm Langley residuals were screened out. 
% Including high Altitude rate spectra, matched to splined stratospheric AOD measured at MLO.
% Averages of c0 from multiple days including: , In f-li-gh, In f-li-gh, In f-li-gh, MLO -fe-b , High- a-lt, High- a-lt, High- a-lt. See the list of files below
% 20180921_4STAR_NIR_C0_refined_flight_langley_am.dat
% 20180922_NIR_C0_4STAR_refined_flight_langley_am.dat
% 20181005_NIR_C0_4STAR_refined_flight_langley_am.dat
% 20180212_NIR_C0_4STAR_refined_averaged_MLO_Feb2018_shortwvl.dat
% 20180921_NIR_C0_refined_high_alt_low_m_frompolyfit_RaggedPoint.dat
% 20181007_NIR_C0_refined_high_alt_low_m_frompolyfit_ElFarafa.dat
% 20181015_NIR_C0_refined_high_alt_low_m_frompolyfit_ElFarafa.dat
Pix Wavelength C0 C0err
511 949.79 5.14465284e+00 2.75457678e-01 
510 949.79 5.30288446e+00 2.52993222e-01 
509 951.68 5.68982455e+00 2.56456879e-01 
508 953.57 5.73107398e+00 2.46505971e-01 
507 955.46 6.18931535e+00 2.54918893e-01 
506 957.34 6.27819710e+00 2.42065133e-01 
505 959.22 6.73241271e+00 2.30200035e-01 
504 961.10 6.80145988e+00 2.06236187e-01 
503 962.98 7.21030585e+00 1.95811688e-01 
502 964.85 7.20114647e+00 1.77483034e-01 
501 966.72 7.68550118e+00 1.63578667e-01 
500 968.59 7.70918105e+00 1.42449361e-01 
499 970.45 8.11307677e+00 1.30957118e-01 
498 972.32 8.06810250e+00 1.34246580e-01 
497 974.18 8.40407133e+00 1.37791806e-01 
496 976.04 8.30660398e+00 1.18041445e-01 
495 977.89 8.64556384e+00 1.20613184e-01 
494 979.74 8.53798066e+00 9.87801345e-02 
493 981.59 8.83248432e+00 9.10755565e-02 
492 983.44 8.71349893e+00 8.17696328e-02 
491 985.29 8.95899524e+00 7.82507592e-02 
490 987.13 8.74974203e+00 7.30280557e-02 
489 988.97 8.98365777e+00 7.49260907e-02 
488 990.81 8.79419984e+00 7.43445920e-02 
487 992.65 8.96610110e+00 7.74410642e-02 
486 994.48 8.76086463e+00 7.75736269e-02 
485 996.31 8.90823664e+00 7.41697487e-02 
484 998.14 8.65267723e+00 7.73715418e-02 
483 999.97 8.80973669e+00 7.59427059e-02 
482 1001.79 8.52331747e+00 7.42720202e-02 
481 1003.62 8.60034503e+00 7.35214332e-02 
480 1005.44 8.38087794e+00 7.64250740e-02 
479 1007.25 8.62221220e+00 7.60336339e-02 
478 1009.07 8.42669429e+00 7.43673550e-02 
477 1010.88 8.60614361e+00 7.49531471e-02 
476 1012.69 8.34696752e+00 7.03150851e-02 
475 1014.50 8.46866189e+00 6.94306188e-02 
474 1016.31 8.25099860e+00 6.66328287e-02 
473 1018.11 8.41237337e+00 6.60571919e-02 
472 1019.91 8.18142342e+00 6.85099965e-02 
471 1021.71 8.34567240e+00 6.87251356e-02 
470 1023.51 8.12180470e+00 6.39725000e-02 
469 1025.30 8.30052056e+00 7.01827703e-02 
468 1027.09 8.17141805e+00 6.79482141e-02 
467 1028.88 8.31063492e+00 7.36184867e-02 
466 1030.67 8.15059747e+00 7.44523680e-02 
465 1032.46 8.33984130e+00 8.48529927e-02 
464 1034.24 8.17999806e+00 8.64829494e-02 
463 1036.02 8.36996136e+00 9.39890073e-02 
462 1037.80 8.25687936e+00 9.91569061e-02 
461 1039.58 8.45953505e+00 1.03912276e-01 
460 1041.35 8.31145433e+00 1.03943334e-01 
459 1043.12 8.46812446e+00 1.03825036e-01 
458 1044.89 8.38355224e+00 1.07291373e-01 
457 1046.66 8.60622696e+00 1.13147725e-01 
456 1048.43 8.51720285e+00 1.12319143e-01 
455 1050.19 8.75051798e+00 1.13875715e-01 
454 1051.95 8.60207323e+00 1.07715464e-01 
453 1053.71 8.84071878e+00 1.04353500e-01 
452 1055.47 8.67154479e+00 9.68788396e-02 
451 1057.23 8.80943380e+00 8.96499373e-02 
450 1058.98 8.65557538e+00 8.72975885e-02 
449 1060.73 8.83313921e+00 8.55115683e-02 
448 1062.48 8.64965534e+00 8.38075156e-02 
447 1064.23 8.79593624e+00 8.18966643e-02 
446 1065.97 8.52598589e+00 7.09722846e-02 
445 1067.71 8.57539950e+00 7.37643390e-02 
444 1069.46 8.37292324e+00 7.50043450e-02 
443 1071.19 8.49382186e+00 7.62544200e-02 
442 1072.93 8.33124774e+00 7.82384505e-02 
441 1074.67 8.44202062e+00 8.07827739e-02 
440 1076.40 8.25605982e+00 8.37644931e-02 
439 1078.13 8.30817097e+00 8.53637362e-02 
438 1079.86 8.06837007e+00 8.61906998e-02 
437 1081.58 8.13979917e+00 9.59572676e-02 
436 1083.31 8.01445496e+00 9.79780904e-02 
435 1085.03 8.17393611e+00 1.03642498e-01 
434 1086.75 8.09454315e+00 1.03013053e-01 
433 1088.47 8.24221117e+00 1.14504648e-01 
432 1090.19 8.14423624e+00 1.09482453e-01 
431 1091.90 8.24708070e+00 1.17513645e-01 
430 1093.61 8.09851611e+00 1.20750532e-01 
429 1095.33 8.30331663e+00 1.27325863e-01 
428 1097.03 8.34878594e+00 1.30722983e-01 
427 1098.74 8.60106543e+00 1.31828058e-01 
426 1100.45 8.60539770e+00 1.38659705e-01 
425 1102.15 8.89765784e+00 1.43265552e-01 
424 1103.85 8.88741289e+00 1.46557270e-01 
423 1105.55 9.15205291e+00 1.54285042e-01 
422 1107.25 9.09496277e+00 1.64551248e-01 
421 1108.94 9.26535807e+00 1.94247373e-01 
420 1110.64 9.08201827e+00 2.35510017e-01 
419 1112.33 9.14523523e+00 3.30332013e-01 
418 1114.02 8.82506296e+00 4.37830142e-01 
417 1115.70 8.81839689e+00 5.02286855e-01 
416 1117.39 8.55728304e+00 5.34434913e-01 
415 1119.07 8.55335157e+00 5.81405358e-01 
414 1120.76 8.38393678e+00 6.13882328e-01 
413 1122.44 8.46480388e+00 6.71956728e-01 
412 1124.12 8.37667998e+00 6.61996344e-01 
411 1125.79 8.58148677e+00 6.25637395e-01 
410 1127.47 8.63598893e+00 5.74595070e-01 
409 1129.14 8.95701287e+00 4.87124435e-01 
408 1130.81 8.66241998e+00 5.69256061e-01 
407 1132.48 8.54788591e+00 6.71798396e-01 
406 1134.15 8.38482673e+00 6.66598119e-01 
405 1135.81 8.60861404e+00 5.96143537e-01 
404 1137.48 8.93993931e+00 4.15153230e-01 
403 1139.14 9.18954618e+00 3.55131249e-01 
402 1140.80 8.96462236e+00 3.77581499e-01 
401 1142.46 8.94478096e+00 4.40248830e-01 
400 1144.12 8.71253000e+00 4.95408344e-01 
399 1145.77 8.77218018e+00 5.25493256e-01 
398 1147.43 8.72999139e+00 5.02726963e-01 
397 1149.08 8.88457724e+00 4.55829650e-01 
396 1150.73 8.83890225e+00 4.19383268e-01 
395 1152.38 9.04799625e+00 3.88251477e-01 
394 1154.02 8.98878281e+00 3.39512807e-01 
393 1155.67 9.22512807e+00 3.01179746e-01 
392 1157.31 9.08897965e+00 2.53527320e-01 
391 1158.95 9.17322540e+00 2.28379316e-01 
390 1160.59 9.07287070e+00 1.82810095e-01 
389 1162.23 9.24386426e+00 1.53428294e-01 
388 1163.87 9.14218971e+00 1.23268764e-01 
387 1165.50 9.21368469e+00 1.09557164e-01 
386 1167.13 9.08517160e+00 9.87347838e-02 
385 1168.76 9.18043406e+00 8.77558200e-02 
384 1170.39 9.06813996e+00 9.08957122e-02 
383 1172.02 9.06391583e+00 8.83567151e-02 
382 1173.65 8.88366291e+00 9.15279585e-02 
381 1175.27 8.88031694e+00 9.62461181e-02 
380 1176.90 8.74339717e+00 8.65999162e-02 
379 1178.52 8.73519223e+00 1.03311025e-01 
378 1180.14 8.50750640e+00 9.79744616e-02 
377 1181.75 8.49668813e+00 9.78647098e-02 
376 1183.37 8.28261811e+00 8.92722925e-02 
375 1184.99 8.30422374e+00 8.86540907e-02 
374 1186.60 8.18273822e+00 9.23718751e-02 
373 1188.21 8.18174992e+00 8.78786143e-02 
372 1189.82 8.08040192e+00 8.44133144e-02 
371 1191.43 8.25930796e+00 8.72779883e-02 
370 1193.04 8.13362217e+00 8.84321180e-02 
369 1194.64 8.12233926e+00 9.30026556e-02 
368 1196.24 7.93439657e+00 9.97484548e-02 
367 1197.85 7.99051619e+00 1.05138102e-01 
366 1199.45 7.87254637e+00 1.06165622e-01 
365 1201.05 7.93594081e+00 1.11334454e-01 
364 1202.64 7.86916125e+00 1.07154914e-01 
363 1204.24 7.92402918e+00 1.06037920e-01 
362 1205.83 7.84236470e+00 9.96448660e-02 
361 1207.43 7.86998447e+00 9.78721830e-02 
360 1209.02 7.80002390e+00 9.84028744e-02 
359 1210.61 7.91912503e+00 9.81563795e-02 
358 1212.19 7.89083738e+00 9.79394139e-02 
357 1213.78 8.01642685e+00 9.55032891e-02 
356 1215.37 7.95695615e+00 8.70409850e-02 
355 1216.95 8.01374118e+00 7.64575232e-02 
354 1218.53 7.95256579e+00 7.15310555e-02 
353 1220.11 8.02379629e+00 7.15585010e-02 
352 1221.69 7.98584315e+00 6.96749348e-02 
351 1223.27 8.04341923e+00 6.90407624e-02 
350 1224.84 8.00712941e+00 6.84711889e-02 
349 1226.42 8.05411514e+00 6.31615255e-02 
348 1227.99 8.02410381e+00 6.75128491e-02 
347 1229.56 8.17559525e+00 6.83074255e-02 
346 1231.13 8.10579000e+00 6.60044559e-02 
345 1232.70 8.16354547e+00 6.65424551e-02 
344 1234.27 8.08448800e+00 5.98138415e-02 
343 1235.84 8.07762752e+00 6.01873900e-02 
342 1237.40 8.00528523e+00 6.02674232e-02 
341 1238.96 8.02299079e+00 6.12727994e-02 
340 1240.52 7.88027048e+00 5.98468292e-02 
339 1242.08 7.98952689e+00 5.45080730e-02 
338 1243.64 7.96667801e+00 5.88066594e-02 
337 1245.20 8.02625542e+00 5.76005952e-02 
336 1246.75 7.99477620e+00 6.30149166e-02 
335 1248.31 8.04221143e+00 6.77338813e-02 
334 1249.86 7.96184398e+00 6.97156955e-02 
333 1251.41 7.97884381e+00 6.55198785e-02 
332 1252.96 7.89121950e+00 6.78828945e-02 
331 1254.51 7.90999808e+00 6.56735929e-02 
330 1256.06 7.84815921e+00 7.04287191e-02 
329 1257.61 7.86906862e+00 7.69792489e-02 
328 1259.15 7.77414160e+00 8.23852445e-02 
327 1260.69 7.73259626e+00 8.99062927e-02 
326 1262.23 7.60037543e+00 9.88185710e-02 
325 1263.77 7.58918413e+00 1.15359821e-01 
324 1265.31 7.43884419e+00 1.38843670e-01 
323 1266.85 7.45171760e+00 1.56561803e-01 
322 1268.39 7.47786985e+00 1.45856018e-01 
321 1269.92 7.55507190e+00 1.32048342e-01 
320 1271.46 7.68851108e+00 9.64685456e-02 
319 1272.99 7.75292165e+00 9.04326445e-02 
318 1274.52 7.73695838e+00 8.75762963e-02 
317 1276.05 7.80821254e+00 8.88136825e-02 
316 1277.58 7.68574744e+00 8.25070076e-02 
315 1279.10 7.53972890e+00 7.58614647e-02 
314 1280.63 7.47177386e+00 7.10790638e-02 
313 1282.15 7.47619474e+00 6.83520855e-02 
312 1283.68 7.55844039e+00 6.91283835e-02 
311 1285.20 7.74675237e+00 7.12905311e-02 
310 1286.72 7.70232030e+00 6.95185995e-02 
309 1288.24 7.71660362e+00 7.19532344e-02 
308 1289.75 7.60725934e+00 6.63102928e-02 
307 1291.27 7.63618788e+00 6.85830904e-02 
306 1292.78 7.66549149e+00 7.06512647e-02 
305 1294.30 7.67411050e+00 6.76735640e-02 
304 1295.81 7.60980557e+00 6.70676260e-02 
303 1297.32 7.61808172e+00 6.89984736e-02 
302 1298.83 7.55843881e+00 6.91664528e-02 
301 1300.34 7.50328219e+00 6.62411001e-02 
300 1301.85 7.45225067e+00 6.37357460e-02 
299 1303.35 7.42163507e+00 6.50413825e-02 
298 1304.86 7.35041184e+00 7.22275096e-02 
297 1306.36 7.34292900e+00 8.08139261e-02 
296 1307.86 7.27355507e+00 8.65432112e-02 
295 1309.36 7.21143573e+00 9.25761294e-02 
294 1310.86 7.16245396e+00 1.06487955e-01 
293 1312.36 7.10123292e+00 1.06645942e-01 
292 1313.86 7.03214426e+00 1.00978042e-01 
291 1315.36 7.01168976e+00 1.06273801e-01 
290 1316.85 6.96113936e+00 1.05667222e-01 
289 1318.34 6.94701528e+00 1.13808821e-01 
288 1319.84 6.91191471e+00 1.21507652e-01 
287 1321.33 6.91969691e+00 1.17591126e-01 
286 1322.82 6.84133925e+00 1.06090001e-01 
285 1324.30 6.81991473e+00 1.10960496e-01 
284 1325.79 6.69428176e+00 1.33186288e-01 
283 1327.28 6.61969321e+00 1.61953791e-01 
282 1328.76 6.47616744e+00 1.95723677e-01 
281 1330.25 6.40852889e+00 2.15489933e-01 
280 1331.73 6.33663784e+00 2.12814765e-01 
279 1333.21 6.32667131e+00 2.17401220e-01 
278 1334.69 6.31315461e+00 2.19446534e-01 
277 1336.17 6.28322759e+00 2.16528379e-01 
276 1337.65 6.23275942e+00 2.30191938e-01 
275 1339.12 6.18129175e+00 2.25310522e-01 
274 1340.60 6.12204582e+00 2.51172001e-01 
273 1342.07 6.03974833e+00 3.01319323e-01 
272 1343.55 5.90054769e+00 3.35175462e-01 
271 1345.02 5.57771347e+00 4.42417952e-01 
270 1346.49 5.33232786e+00 5.06431091e-01 
269 1347.96 5.09820854e+00 5.78983064e-01 
268 1349.43 4.79843952e+00 6.41263719e-01 
267 1350.89 4.54360814e+00 7.06607986e-01 
266 1352.36 4.11895903e+00 8.03608521e-01 
265 1353.82 3.84177006e+00 8.19731297e-01 
264 1355.29 3.52647208e+00 9.12029937e-01 
263 1356.75 3.32762573e+00 8.83636249e-01 
262 1358.21 3.01453104e+00 8.93864114e-01 
261 1359.67 2.62193980e+00 1.10143805e+00 
260 1361.13 2.52443584e+00 9.97560835e-01 
259 1362.59 2.42736085e+00 1.01794088e+00 
258 1364.04 2.59382874e+00 8.95336619e-01 
257 1365.50 2.59258195e+00 8.76637488e-01 
256 1366.95 2.48235351e+00 1.09494861e+00 
255 1368.41 2.43843246e+00 1.06590751e+00 
254 1369.86 2.48761391e+00 9.09194245e-01 
253 1371.31 2.65691614e+00 8.09555609e-01 
252 1372.76 2.59512157e+00 9.21449120e-01 
251 1374.21 2.76225527e+00 6.43259675e-01 
250 1375.65 2.67584419e+00 5.52002358e-01 
249 1377.10 2.43515185e+00 5.04180324e-01 
248 1378.55 2.11329742e+00 5.14721753e-01 
247 1379.99 1.79905130e+00 4.85555840e-01 
246 1381.43 1.57556580e+00 6.46771376e-01 
245 1382.87 1.63067211e+00 5.69119573e-01 
244 1384.32 1.79797430e+00 5.53193967e-01 
243 1385.75 2.00748809e+00 5.33300718e-01 
242 1387.19 2.27642026e+00 4.81482409e-01 
241 1388.63 2.38911060e+00 4.59422005e-01 
240 1390.07 2.43525067e+00 4.14983737e-01 
239 1391.50 2.44541756e+00 4.43771458e-01 
238 1392.94 2.13552565e+00 6.19965967e-01 
237 1394.37 2.20768038e+00 5.47370553e-01 
236 1395.80 2.40596685e+00 5.45471790e-01 
235 1397.23 2.34203945e+00 5.54295792e-01 
234 1398.66 2.41501921e+00 6.40348868e-01 
233 1400.09 2.60249358e+00 5.74415297e-01 
232 1401.52 2.51510078e+00 6.13064568e-01 
231 1402.94 2.66772501e+00 6.11405945e-01 
230 1404.37 2.80078262e+00 5.86506332e-01 
229 1405.79 2.74371934e+00 5.84889615e-01 
228 1407.22 2.78875745e+00 5.82819378e-01 
227 1408.64 2.91784336e+00 5.69342426e-01 
226 1410.06 3.08268363e+00 5.53671996e-01 
225 1411.48 3.09940517e+00 5.58680009e-01 
224 1412.90 3.22303490e+00 5.42392250e-01 
223 1414.32 3.32185452e+00 5.05098297e-01 
222 1415.73 3.30909117e+00 5.20875869e-01 
221 1417.15 3.35356769e+00 5.40589970e-01 
220 1418.56 3.46757020e+00 5.12687211e-01 
219 1419.98 3.44881900e+00 5.17197192e-01 
218 1421.39 3.51391554e+00 4.96315812e-01 
217 1422.80 3.62232865e+00 4.38650204e-01 
216 1424.21 3.66980119e+00 4.24242752e-01 
215 1425.62 3.65409590e+00 4.36447884e-01 
214 1427.03 3.73311149e+00 4.17296719e-01 
213 1428.44 3.62058851e+00 3.97035760e-01 
212 1429.84 3.48649046e+00 3.98629325e-01 
211 1431.25 3.45952340e+00 3.66205932e-01 
210 1432.65 3.44132328e+00 3.45331034e-01 
209 1434.06 3.48054356e+00 3.47438190e-01 
208 1435.46 3.58204909e+00 3.55411014e-01 
207 1436.86 3.60344234e+00 3.47025667e-01 
206 1438.26 3.62617065e+00 3.50798551e-01 
205 1439.66 3.62688333e+00 3.34624396e-01 
204 1441.05 3.73668778e+00 2.99059836e-01 
203 1442.45 3.67778587e+00 2.99829817e-01 
202 1443.85 3.67207619e+00 3.17289454e-01 
201 1445.24 3.73262975e+00 3.05527229e-01 
200 1446.64 3.79747332e+00 2.99751512e-01 
199 1448.03 3.75263951e+00 3.32945747e-01 
198 1449.42 3.82850960e+00 3.26904430e-01 
197 1450.81 3.83345609e+00 3.10029454e-01 
196 1452.20 3.85499954e+00 2.96387945e-01 
195 1453.59 3.98310271e+00 2.34858218e-01 
194 1454.97 4.11399549e+00 1.80419010e-01 
193 1456.36 4.13189534e+00 1.57578105e-01 
192 1457.75 4.16217910e+00 1.55382481e-01 
191 1459.13 4.12915560e+00 1.57244613e-01 
190 1460.51 4.10468691e+00 1.76848325e-01 
189 1461.90 3.99754449e+00 1.99748861e-01 
188 1463.28 3.95476555e+00 2.26426929e-01 
187 1464.66 3.86780971e+00 2.44937105e-01 
186 1466.04 3.89771093e+00 2.44465602e-01 
185 1467.41 3.80304033e+00 2.65085704e-01 
184 1468.79 3.77211301e+00 2.81924184e-01 
183 1470.17 3.73152655e+00 2.82527257e-01 
182 1471.54 3.76394623e+00 2.79167661e-01 
181 1472.92 3.79772914e+00 2.49821936e-01 
180 1474.29 3.88436563e+00 2.16453503e-01 
179 1475.66 3.88143560e+00 1.95954252e-01 
178 1477.03 3.85246591e+00 2.03951633e-01 
177 1478.40 3.82031840e+00 2.16407294e-01 
176 1479.77 3.86495513e+00 2.06106689e-01 
175 1481.14 3.85912372e+00 1.88676753e-01 
174 1482.51 3.92295364e+00 1.80227721e-01 
173 1483.87 3.89686726e+00 1.65832403e-01 
172 1485.24 3.86915742e+00 1.53941744e-01 
171 1486.60 3.80597241e+00 1.46785661e-01 
170 1487.96 3.85026726e+00 1.26039742e-01 
169 1489.32 3.83216410e+00 1.14327141e-01 
168 1490.68 3.96076411e+00 8.83817474e-02 
167 1492.04 3.96430459e+00 7.55838651e-02 
166 1493.40 4.00766702e+00 7.38212898e-02 
165 1494.76 3.98212590e+00 7.59735239e-02 
164 1496.12 4.01181303e+00 7.84100405e-02 
163 1497.47 3.96437660e+00 6.67426305e-02 
162 1498.83 4.00937570e+00 4.96012765e-02 
161 1500.18 3.86842075e+00 4.25341218e-02 
160 1501.53 3.81248588e+00 4.79799127e-02 
159 1502.89 3.70483520e+00 5.06669696e-02 
158 1504.24 3.71881468e+00 5.04624859e-02 
157 1505.59 3.75017816e+00 5.47957950e-02 
156 1506.93 3.86970312e+00 5.03663396e-02 
155 1508.28 3.90139991e+00 4.79034064e-02 
154 1509.63 3.94927479e+00 4.74514104e-02 
153 1510.97 3.89690603e+00 3.58413431e-02 
152 1512.32 3.93221019e+00 3.30031677e-02 
151 1513.66 3.85969471e+00 3.23027212e-02 
150 1515.00 3.89014638e+00 3.51888264e-02 
149 1516.34 3.83760891e+00 3.55538752e-02 
148 1517.69 3.83452911e+00 3.16545691e-02 
147 1519.02 3.75643594e+00 2.38942031e-02 
146 1520.36 3.77407032e+00 2.78441528e-02 
145 1521.70 3.71368236e+00 2.52040258e-02 
144 1523.04 3.75629731e+00 2.29606334e-02 
143 1524.37 3.71635759e+00 2.33061566e-02 
142 1525.71 3.76800364e+00 2.53223585e-02 
141 1527.04 3.69281630e+00 2.09089563e-02 
140 1528.37 3.72046837e+00 2.33751339e-02 
139 1529.70 3.65094681e+00 1.96645955e-02 
138 1531.03 3.68965405e+00 2.42078027e-02 
137 1532.36 3.62745107e+00 2.48324496e-02 
136 1533.69 3.66150684e+00 2.69063830e-02 
135 1535.02 3.59393533e+00 2.51381810e-02 
134 1536.34 3.62220600e+00 2.53931623e-02 
133 1537.67 3.54600945e+00 2.18708318e-02 
132 1538.99 3.57328869e+00 2.51498608e-02 
131 1540.31 3.51647829e+00 2.16250950e-02 
130 1541.64 3.55678903e+00 2.26676593e-02 
129 1542.96 3.52309255e+00 2.58202144e-02 
128 1544.28 3.56896085e+00 2.74035136e-02 
127 1545.60 3.50357930e+00 3.13365768e-02 
126 1546.91 3.54184475e+00 3.26368068e-02 
125 1548.23 3.46215934e+00 2.99970753e-02 
124 1549.55 3.50116666e+00 2.96309671e-02 
123 1550.86 3.42609176e+00 2.72426731e-02 
122 1552.18 3.43409885e+00 2.25355769e-02 
121 1553.49 3.36277503e+00 2.03589015e-02 
120 1554.80 3.38042052e+00 2.06508996e-02 
119 1556.11 3.31124789e+00 1.84927998e-02 
118 1557.42 3.34996067e+00 1.84087206e-02 
117 1558.73 3.29237252e+00 1.59861140e-02 
116 1560.04 3.31692989e+00 1.67836787e-02 
115 1561.34 3.23204433e+00 1.56353853e-02 
114 1562.65 3.26810274e+00 1.75073394e-02 
113 1563.95 3.19551990e+00 1.62213708e-02 
112 1565.26 3.24566894e+00 1.99676157e-02 
111 1566.56 3.14082587e+00 1.90911917e-02 
110 1567.86 3.17823355e+00 2.37564253e-02 
109 1569.16 3.09842682e+00 3.07185405e-02 
108 1570.46 3.09311561e+00 3.44309977e-02 
107 1571.76 3.00257598e+00 3.78951711e-02 
106 1573.05 2.98432916e+00 3.24853760e-02 
105 1574.35 2.88269669e+00 3.40871417e-02 
104 1575.64 2.89592155e+00 3.11573646e-02 
103 1576.94 2.86242021e+00 3.35048234e-02 
102 1578.23 2.92197994e+00 3.01221904e-02 
101 1579.52 2.89461817e+00 2.77338799e-02 
100 1580.81 2.96835235e+00 2.82955332e-02 
99 1582.10 2.91768036e+00 2.72552311e-02 
98 1583.39 2.97615846e+00 2.14272616e-02 
97 1584.68 2.91374838e+00 2.34949086e-02 
96 1585.97 2.91586548e+00 2.18673872e-02 
95 1587.25 2.81602000e+00 1.83465376e-02 
94 1588.54 2.83055767e+00 1.99534531e-02 
93 1589.82 2.76570983e+00 1.89826644e-02 
92 1591.10 2.83445629e+00 1.93775697e-02 
91 1592.38 2.78570218e+00 1.57906297e-02 
90 1593.66 2.83433677e+00 1.70404438e-02 
89 1594.94 2.76433538e+00 1.95491994e-02 
88 1596.22 2.79408546e+00 2.13089824e-02 
87 1597.50 2.72222831e+00 2.78601287e-02 
86 1598.77 2.74420376e+00 3.21101413e-02 
85 1600.05 2.66302710e+00 3.40172948e-02 
84 1601.32 2.67961146e+00 3.37869932e-02 
83 1602.59 2.59918660e+00 3.82328162e-02 
82 1603.86 2.65138650e+00 3.39403230e-02 
81 1605.13 2.54368749e+00 3.20918199e-02 
80 1606.40 2.59900646e+00 3.32898916e-02 
79 1607.67 2.50883779e+00 3.80722370e-02 
78 1608.94 2.55262268e+00 3.57171810e-02 
77 1610.20 2.49477548e+00 3.35305626e-02 
76 1611.47 2.55183804e+00 2.73204368e-02 
75 1612.73 2.50062679e+00 2.57932639e-02 
74 1614.00 2.55547398e+00 2.29905144e-02 
73 1615.26 2.48958402e+00 2.09013102e-02 
72 1616.52 2.51400617e+00 2.13856544e-02 
71 1617.78 2.41720365e+00 2.15240284e-02 
70 1619.03 2.44702548e+00 1.81320491e-02 
69 1620.29 2.38683728e+00 1.72590145e-02 
68 1621.55 2.42954511e+00 1.55853286e-02 
