% C0 (TOA Count Rate, /ms) for 4STAR NIR spectrometer (512 channels) derived from (SEE Original files for sources) and recorded on 2019-04-29 17:18:29.
% Langley at MLO and airborne Data outside 2.0x the STD of 501 nm Langley residuals were screened out. 
% Including high Altitude rate spectra, matched to splined stratospheric AOD measured at MLO.
% Averages of c0 from multiple days including: , In f-li-gh, In f-li-gh, In f-li-gh, MLO -fe-b . See the list of files below
% 20180921_4STAR_NIR_C0_refined_flight_langley_am.dat
% 20180922_NIR_C0_4STAR_refined_flight_langley_am.dat
% 20181005_NIR_C0_4STAR_refined_flight_langley_am.dat
% 20180212_NIR_C0_4STAR_refined_averaged_MLO_Feb2018_shortwvl.dat
Pix Wavelength C0 C0err
511 949.79 5.02814829e+00 3.04926065e-01 
510 949.79 5.19396165e+00 2.72168384e-01 
509 951.68 5.57834369e+00 2.74900810e-01 
508 953.57 5.62187454e+00 2.59528561e-01 
507 955.46 6.07955080e+00 2.74639126e-01 
506 957.34 6.17093828e+00 2.53179268e-01 
505 959.22 6.63018090e+00 2.37487144e-01 
504 961.10 6.71002093e+00 2.08123236e-01 
503 962.98 7.12214723e+00 1.92171153e-01 
502 964.85 7.12039924e+00 1.68106328e-01 
501 966.72 7.60939220e+00 1.51767838e-01 
500 968.59 7.64059582e+00 1.20671235e-01 
499 970.45 8.05041626e+00 1.12175025e-01 
498 972.32 8.00284541e+00 1.11303192e-01 
497 974.18 8.33829773e+00 1.22447526e-01 
496 976.04 8.25015855e+00 9.61377943e-02 
495 977.89 8.58880335e+00 1.07591284e-01 
494 979.74 8.49204499e+00 7.48016635e-02 
493 981.59 8.79141844e+00 6.67568535e-02 
492 983.44 8.67610812e+00 5.14590081e-02 
491 985.29 8.92212123e+00 4.17754698e-02 
490 987.13 8.71607077e+00 3.78953243e-02 
489 988.97 8.94981444e+00 4.67878170e-02 
488 990.81 8.75945884e+00 4.18226623e-02 
487 992.65 8.93051458e+00 4.83915636e-02 
486 994.48 8.72549719e+00 3.98566123e-02 
485 996.31 8.87421918e+00 4.08750422e-02 
484 998.14 8.61643332e+00 3.91583308e-02 
483 999.97 8.77579123e+00 4.03741323e-02 
482 1001.79 8.48948598e+00 3.76997501e-02 
481 1003.62 8.56636995e+00 3.07045454e-02 
480 1005.44 8.34656984e+00 3.53441493e-02 
479 1007.25 8.58618248e+00 3.92706949e-02 
478 1009.07 8.39038438e+00 2.82475179e-02 
477 1010.88 8.56955969e+00 2.90347131e-02 
476 1012.69 8.31487554e+00 3.15490024e-02 
475 1014.50 8.43385535e+00 2.79931457e-02 
474 1016.31 8.22025937e+00 2.20637777e-02 
473 1018.11 8.38078135e+00 2.76827328e-02 
472 1019.91 8.15084547e+00 3.87589803e-02 
471 1021.71 8.31494343e+00 4.20011727e-02 
470 1023.51 8.09384259e+00 2.61773273e-02 
469 1025.30 8.27005732e+00 3.73317076e-02 
468 1027.09 8.14085054e+00 3.20347129e-02 
467 1028.88 8.27696091e+00 3.49400337e-02 
466 1030.67 8.11655075e+00 3.27367487e-02 
465 1032.46 8.30139590e+00 4.79350517e-02 
464 1034.24 8.14107144e+00 5.23055601e-02 
463 1036.02 8.32634527e+00 6.10247445e-02 
462 1037.80 8.21444410e+00 6.03768577e-02 
461 1039.58 8.41442347e+00 6.50578376e-02 
460 1041.35 8.26520294e+00 5.42159706e-02 
459 1043.12 8.42376316e+00 5.06229513e-02 
458 1044.89 8.33690208e+00 5.37231741e-02 
457 1046.66 8.55749017e+00 6.44921782e-02 
456 1048.43 8.47007596e+00 5.63787014e-02 
455 1050.19 8.70055485e+00 5.82191462e-02 
454 1051.95 8.55455679e+00 5.15387893e-02 
453 1053.71 8.79192370e+00 4.56531298e-02 
452 1055.47 8.62793189e+00 3.34813118e-02 
451 1057.23 8.76959539e+00 3.07593027e-02 
450 1058.98 8.61814123e+00 3.17569420e-02 
449 1060.73 8.79661620e+00 3.72311132e-02 
448 1062.48 8.61405420e+00 3.73306292e-02 
447 1064.23 8.75890649e+00 4.44820769e-02 
446 1065.97 8.49455482e+00 2.89353945e-02 
445 1067.71 8.54088777e+00 3.37257960e-02 
444 1069.46 8.33940971e+00 3.59329438e-02 
443 1071.19 8.45978600e+00 4.94582146e-02 
442 1072.93 8.29682422e+00 4.86112381e-02 
441 1074.67 8.40580880e+00 5.16339237e-02 
440 1076.40 8.21826774e+00 5.08618966e-02 
439 1078.13 8.27039880e+00 5.63740076e-02 
438 1079.86 8.02956819e+00 4.91861224e-02 
437 1081.58 8.09673056e+00 6.72974134e-02 
436 1083.31 7.96910581e+00 5.98296088e-02 
435 1085.03 8.12389270e+00 6.16680372e-02 
434 1086.75 8.04669303e+00 6.10756292e-02 
433 1088.47 8.19018001e+00 7.02277116e-02 
432 1090.19 8.09471885e+00 5.61963407e-02 
431 1091.90 8.19292408e+00 6.45900854e-02 
430 1093.61 8.04420552e+00 6.15163022e-02 
429 1095.33 8.24114006e+00 6.86893752e-02 
428 1097.03 8.28733730e+00 7.06840409e-02 
427 1098.74 8.53726637e+00 7.43381827e-02 
426 1100.45 8.53617656e+00 8.46556240e-02 
425 1102.15 8.82722384e+00 9.40978433e-02 
424 1103.85 8.81373930e+00 9.68034106e-02 
423 1105.55 9.07462579e+00 1.13201426e-01 
422 1107.25 9.01341742e+00 1.33711712e-01 
421 1108.94 9.17181677e+00 1.78596025e-01 
420 1110.64 8.96898073e+00 2.29539129e-01 
419 1112.33 8.99507409e+00 3.50605315e-01 
418 1114.02 8.63350856e+00 4.80933292e-01 
417 1115.70 8.59962806e+00 5.52679389e-01 
416 1117.39 8.32195243e+00 5.83360903e-01 
415 1119.07 8.30279428e+00 6.40973304e-01 
414 1120.76 8.12092453e+00 6.78419275e-01 
413 1122.44 8.17920503e+00 7.48866123e-01 
412 1124.12 8.09634545e+00 7.39432378e-01 
411 1125.79 8.31405437e+00 6.91526623e-01 
410 1127.47 8.38662961e+00 6.32292202e-01 
409 1129.14 8.74677542e+00 5.31272921e-01 
408 1130.81 8.41699883e+00 6.19837341e-01 
407 1132.48 8.25705913e+00 7.36146018e-01 
406 1134.15 8.09391987e+00 7.24256732e-01 
405 1135.81 8.34833610e+00 6.47698863e-01 
404 1137.48 8.75148550e+00 4.32980109e-01 
403 1139.14 9.02965784e+00 3.59653312e-01 
402 1140.80 8.79433965e+00 3.82688766e-01 
401 1142.46 8.75018060e+00 4.54511706e-01 
400 1144.12 8.49439764e+00 5.20252024e-01 
399 1145.77 8.54274946e+00 5.56466551e-01 
398 1147.43 8.50954893e+00 5.32003576e-01 
397 1149.08 8.68148810e+00 4.75568206e-01 
396 1150.73 8.65030679e+00 4.31196697e-01 
395 1152.38 8.87661743e+00 4.02023888e-01 
394 1154.02 8.83600843e+00 3.47154210e-01 
393 1155.67 9.08913595e+00 3.03953836e-01 
392 1157.31 8.97196257e+00 2.47549445e-01 
391 1158.95 9.06929708e+00 2.23296554e-01 
390 1160.59 8.98760635e+00 1.68818833e-01 
389 1162.23 9.17349970e+00 1.36467567e-01 
388 1163.87 9.08248067e+00 9.43301946e-02 
387 1165.50 9.16375720e+00 8.58685626e-02 
386 1167.13 9.03737980e+00 7.20968856e-02 
385 1168.76 9.13893884e+00 6.21182391e-02 
384 1170.39 9.02144420e+00 6.26289018e-02 
383 1172.02 9.01980477e+00 6.60845201e-02 
382 1173.65 8.83575511e+00 6.80519375e-02 
381 1175.27 8.83196628e+00 8.15811813e-02 
380 1176.90 8.69881034e+00 6.62781959e-02 
379 1178.52 8.68421924e+00 8.61212296e-02 
378 1180.14 8.45940524e+00 7.79812260e-02 
377 1181.75 8.44875807e+00 7.58817445e-02 
376 1183.37 8.24113393e+00 6.28357663e-02 
375 1184.99 8.26441741e+00 6.42688334e-02 
374 1186.60 8.14126930e+00 6.67095199e-02 
373 1188.21 8.14566905e+00 6.67979887e-02 
372 1189.82 8.04578915e+00 5.66050860e-02 
371 1191.43 8.22570127e+00 5.06166015e-02 
370 1193.04 8.10320043e+00 5.23693641e-02 
369 1194.64 8.08821776e+00 5.00405000e-02 
368 1196.24 7.89843506e+00 6.33704700e-02 
367 1197.85 7.95002210e+00 6.20175687e-02 
366 1199.45 7.83512789e+00 6.33167102e-02 
365 1201.05 7.89574444e+00 6.63664018e-02 
364 1202.64 7.83325335e+00 6.60580890e-02 
363 1204.24 7.89193815e+00 6.58765695e-02 
362 1205.83 7.80804774e+00 5.95128978e-02 
361 1207.43 7.83473405e+00 5.62021454e-02 
360 1209.02 7.76280713e+00 5.30444985e-02 
359 1210.61 7.87754741e+00 5.16305918e-02 
358 1212.19 7.84845766e+00 5.55358363e-02 
357 1213.78 7.97222629e+00 5.36690002e-02 
356 1215.37 7.91953045e+00 4.91274892e-02 
355 1216.95 7.98450404e+00 3.72201595e-02 
354 1218.53 7.92714914e+00 2.32185845e-02 
353 1220.11 8.00209690e+00 3.20361410e-02 
352 1221.69 7.95939725e+00 3.16604767e-02 
351 1223.27 8.01917076e+00 4.58651104e-02 
350 1224.84 7.98002258e+00 4.47342102e-02 
349 1226.42 8.03031048e+00 3.79830266e-02 
348 1227.99 7.99631971e+00 4.33854841e-02 
347 1229.56 8.14952058e+00 5.31135618e-02 
346 1231.13 8.07708287e+00 4.17290388e-02 
345 1232.70 8.13766432e+00 4.80189202e-02 
344 1234.27 8.06294670e+00 3.89746811e-02 
343 1235.84 8.05963933e+00 4.47591042e-02 
342 1237.40 7.98655408e+00 4.11253245e-02 
341 1238.96 8.00356331e+00 4.95550107e-02 
340 1240.52 7.86247730e+00 4.21509388e-02 
339 1242.08 7.97570181e+00 3.60529086e-02 
338 1243.64 7.95307934e+00 4.15356809e-02 
337 1245.20 8.01538768e+00 3.53394973e-02 
336 1246.75 7.98569801e+00 3.84479463e-02 
335 1248.31 8.03092248e+00 4.77033711e-02 
334 1249.86 7.95406047e+00 4.40627538e-02 
333 1251.41 7.97525474e+00 4.11446072e-02 
332 1252.96 7.89089123e+00 3.71162106e-02 
331 1254.51 7.91209495e+00 2.73551575e-02 
330 1256.06 7.85053974e+00 4.19197747e-02 
329 1257.61 7.87717044e+00 5.91396093e-02 
328 1259.15 7.78987602e+00 7.12329562e-02 
327 1260.69 7.75962269e+00 7.72161365e-02 
326 1262.23 7.63534674e+00 8.36240013e-02 
325 1263.77 7.63285753e+00 1.10959141e-01 
324 1265.31 7.48737559e+00 1.51307990e-01 
323 1266.85 7.49955156e+00 1.82195394e-01 
322 1268.39 7.52002990e+00 1.67429873e-01 
321 1269.92 7.58967697e+00 1.48383918e-01 
320 1271.46 7.70556864e+00 8.81639510e-02 
319 1272.99 7.75932205e+00 8.46446173e-02 
318 1274.52 7.73462847e+00 7.76141417e-02 
317 1276.05 7.79539654e+00 7.60379346e-02 
316 1277.58 7.67017618e+00 6.18231841e-02 
315 1279.10 7.52156648e+00 4.50361983e-02 
314 1280.63 7.44905954e+00 3.55594625e-02 
313 1282.15 7.45398847e+00 3.54573672e-02 
312 1283.68 7.53011975e+00 3.00068370e-02 
311 1285.20 7.71596831e+00 3.86074405e-02 
310 1286.72 7.67649448e+00 3.27609838e-02 
309 1288.24 7.68912030e+00 4.54229801e-02 
308 1289.75 7.58318901e+00 4.17449504e-02 
307 1291.27 7.61093780e+00 4.73333422e-02 
306 1292.78 7.63836786e+00 4.81205179e-02 
305 1294.30 7.64942363e+00 5.05522625e-02 
304 1295.81 7.58350715e+00 4.92821030e-02 
303 1297.32 7.58766153e+00 4.75627068e-02 
302 1298.83 7.52864295e+00 5.25305112e-02 
301 1300.34 7.47252330e+00 4.35129684e-02 
300 1301.85 7.42464539e+00 4.23932684e-02 
299 1303.35 7.39090690e+00 4.38694464e-02 
298 1304.86 7.31928089e+00 6.07660512e-02 
297 1306.36 7.31045958e+00 7.28540171e-02 
296 1307.86 7.23657548e+00 7.57135551e-02 
295 1309.36 7.17410910e+00 9.31729286e-02 
294 1310.86 7.12032896e+00 1.07225233e-01 
293 1312.36 7.05805668e+00 1.07429345e-01 
292 1313.86 6.99111387e+00 9.98270013e-02 
291 1315.36 6.96478766e+00 9.88678814e-02 
290 1316.85 6.91497365e+00 9.51484111e-02 
289 1318.34 6.89765572e+00 1.04949474e-01 
288 1319.84 6.85727528e+00 1.10878011e-01 
287 1321.33 6.86842006e+00 1.11643174e-01 
286 1322.82 6.79450798e+00 9.09934784e-02 
285 1324.30 6.77396497e+00 1.01935573e-01 
284 1325.79 6.63790664e+00 1.27571476e-01 
283 1327.28 6.55189967e+00 1.67444117e-01 
282 1328.76 6.39589638e+00 2.09316268e-01 
281 1330.25 6.32086089e+00 2.34324129e-01 
280 1331.73 6.24962628e+00 2.30487760e-01 
279 1333.21 6.23961470e+00 2.35700353e-01 
278 1334.69 6.22183010e+00 2.34966449e-01 
277 1336.17 6.19463554e+00 2.33680931e-01 
276 1337.65 6.13842359e+00 2.50873658e-01 
275 1339.12 6.08739716e+00 2.46515146e-01 
274 1340.60 6.01809293e+00 2.78229882e-01 
273 1342.07 5.91666770e+00 3.39591721e-01 
272 1343.55 5.76054046e+00 3.76678683e-01 
271 1345.02 5.39865932e+00 5.04956307e-01 
270 1346.49 5.12370566e+00 5.75606838e-01 
269 1347.96 4.86639698e+00 6.65110274e-01 
268 1349.43 4.54094055e+00 7.35157570e-01 
267 1350.89 4.26346686e+00 8.10997863e-01 
266 1352.36 3.79926921e+00 9.19348991e-01 
265 1353.82 3.52003655e+00 9.38006780e-01 
264 1355.29 3.17153834e+00 1.05102769e+00 
263 1356.75 2.97994950e+00 9.97547857e-01 
262 1358.21 2.66256482e+00 9.98355485e-01 
261 1359.67 2.19559985e+00 1.27084214e+00 
260 1361.13 2.13263634e+00 1.12241574e+00 
259 1362.59 2.03038014e+00 1.15548532e+00 
258 1364.04 2.24138175e+00 9.99144421e-01 
257 1365.50 2.24986987e+00 9.78561062e-01 
256 1366.95 2.06386893e+00 1.28343004e+00 
255 1368.41 2.03731669e+00 1.24925327e+00 
254 1369.86 2.13989269e+00 1.04125987e+00 
253 1371.31 2.34450156e+00 9.22490377e-01 
252 1372.76 2.24323639e+00 1.08930060e+00 
251 1374.21 2.50788047e+00 7.29179824e-01 
250 1375.65 2.45239603e+00 6.16841212e-01 
249 1377.10 2.23055828e+00 5.57488409e-01 
248 1378.55 1.90153658e+00 5.64317498e-01 
247 1379.99 1.59955901e+00 5.20813878e-01 
246 1381.43 1.32342246e+00 7.43613869e-01 
245 1382.87 1.40912147e+00 6.40061115e-01 
244 1384.32 1.57848958e+00 6.21044015e-01 
243 1385.75 1.79781916e+00 6.02203855e-01 
242 1387.19 2.08339132e+00 5.40100780e-01 
241 1388.63 2.20658445e+00 5.16868101e-01 
240 1390.07 2.26367553e+00 4.49951159e-01 
239 1391.50 2.26510695e+00 4.84886566e-01 
238 1392.94 1.88705924e+00 7.05500844e-01 
237 1394.37 1.98523811e+00 6.00687574e-01 
236 1395.80 2.18346404e+00 6.03667442e-01 
235 1397.23 2.11625147e+00 6.12370825e-01 
234 1398.66 2.16019572e+00 7.34647460e-01 
233 1400.09 2.36890498e+00 6.44024635e-01 
232 1401.52 2.26877665e+00 6.88139759e-01 
231 1402.94 2.42005734e+00 6.85558647e-01 
230 1404.37 2.56266607e+00 6.56380249e-01 
229 1405.79 2.50717193e+00 6.51015883e-01 
228 1407.22 2.55133925e+00 6.49807196e-01 
227 1408.64 2.68877295e+00 6.41263606e-01 
226 1410.06 2.86043573e+00 6.29906396e-01 
225 1411.48 2.87579414e+00 6.36729102e-01 
224 1412.90 3.00433178e+00 6.19190952e-01 
223 1414.32 3.11781073e+00 5.74637423e-01 
222 1415.73 3.09850211e+00 5.91369997e-01 
221 1417.15 3.13873927e+00 6.21284481e-01 
220 1418.56 3.26125943e+00 5.86135001e-01 
219 1419.98 3.24060686e+00 5.91997159e-01 
218 1421.39 3.31313676e+00 5.67408497e-01 
217 1422.80 3.44430142e+00 5.00868939e-01 
216 1424.21 3.49360101e+00 4.78027005e-01 
215 1425.62 3.47700073e+00 4.96943300e-01 
214 1427.03 3.56463446e+00 4.79281090e-01 
213 1428.44 3.46543211e+00 4.61387588e-01 
212 1429.84 3.33791101e+00 4.68915328e-01 
211 1431.25 3.33320306e+00 4.40463138e-01 
210 1432.65 3.32280660e+00 4.12926683e-01 
209 1434.06 3.35900482e+00 4.11643988e-01 
208 1435.46 3.45986388e+00 4.25180340e-01 
207 1436.86 3.48408279e+00 4.17615370e-01 
206 1438.26 3.50784329e+00 4.23888053e-01 
205 1439.66 3.51143019e+00 4.01192507e-01 
204 1441.05 3.63033715e+00 3.53434559e-01 
203 1442.45 3.56732977e+00 3.47244024e-01 
202 1443.85 3.54840815e+00 3.59204186e-01 
201 1445.24 3.61037620e+00 3.45317779e-01 
200 1446.64 3.67734633e+00 3.38671088e-01 
199 1448.03 3.61901847e+00 3.79526007e-01 
198 1449.42 3.69825983e+00 3.76637903e-01 
197 1450.81 3.70749983e+00 3.53427483e-01 
196 1452.20 3.73535568e+00 3.39573215e-01 
195 1453.59 3.88805291e+00 2.69290304e-01 
194 1454.97 4.03893234e+00 2.02493890e-01 
193 1456.36 4.06764042e+00 1.74653420e-01 
192 1457.75 4.09639271e+00 1.68204474e-01 
191 1459.13 4.06307429e+00 1.73209536e-01 
190 1460.51 4.02879518e+00 1.93806723e-01 
189 1461.90 3.91621393e+00 2.24780590e-01 
188 1463.28 3.86130212e+00 2.53907582e-01 
187 1464.66 3.76488979e+00 2.71795875e-01 
186 1466.04 3.79465751e+00 2.71281912e-01 
185 1467.41 3.69158321e+00 2.94975301e-01 
184 1468.79 3.65717648e+00 3.18668594e-01 
183 1470.17 3.61913009e+00 3.22004353e-01 
182 1471.54 3.65167797e+00 3.17463972e-01 
181 1472.92 3.69580095e+00 2.83245530e-01 
180 1474.29 3.79754134e+00 2.46000238e-01 
179 1475.66 3.80214107e+00 2.22543642e-01 
178 1477.03 3.76891877e+00 2.32026557e-01 
177 1478.40 3.73204102e+00 2.44800388e-01 
176 1479.77 3.78029479e+00 2.33207476e-01 
175 1481.14 3.78370348e+00 2.15463625e-01 
174 1482.51 3.84720760e+00 2.01429647e-01 
173 1483.87 3.82622936e+00 1.83964176e-01 
172 1485.24 3.80455418e+00 1.71615593e-01 
171 1486.60 3.74455077e+00 1.64504144e-01 
170 1487.96 3.79620467e+00 1.38284292e-01 
169 1489.32 3.78334615e+00 1.26112527e-01 
168 1490.68 3.92066397e+00 9.21857943e-02 
167 1492.04 3.92906214e+00 7.48879695e-02 
166 1493.40 3.97619955e+00 7.58141468e-02 
165 1494.76 3.95136817e+00 8.15194337e-02 
164 1496.12 3.97792585e+00 8.26488868e-02 
163 1497.47 3.93682989e+00 7.34604603e-02 
162 1498.83 3.98691790e+00 4.57990295e-02 
161 1500.18 3.85401591e+00 4.30368870e-02 
160 1501.53 3.79253242e+00 4.75130834e-02 
159 1502.89 3.68367766e+00 5.24885065e-02 
158 1504.24 3.69825619e+00 4.96660359e-02 
157 1505.59 3.72779744e+00 5.78017068e-02 
156 1506.93 3.84892893e+00 4.96697906e-02 
155 1508.28 3.88268273e+00 5.01634141e-02 
154 1509.63 3.92971678e+00 4.52273419e-02 
153 1510.97 3.88303582e+00 3.28504954e-02 
152 1512.32 3.91899922e+00 2.13322224e-02 
151 1513.66 3.84947972e+00 2.85272796e-02 
150 1515.00 3.87747024e+00 3.45936386e-02 
149 1516.34 3.82621728e+00 3.30542826e-02 
148 1517.69 3.82216689e+00 2.38656300e-02 
147 1519.02 3.74612296e+00 1.52165858e-02 
146 1520.36 3.76553134e+00 1.84993395e-02 
145 1521.70 3.70646527e+00 1.76429400e-02 
144 1523.04 3.74994409e+00 1.88902633e-02 
143 1524.37 3.71130470e+00 2.13562908e-02 
142 1525.71 3.76119918e+00 1.78425392e-02 
141 1527.04 3.68724699e+00 1.35903921e-02 
140 1528.37 3.71782145e+00 1.55251165e-02 
139 1529.70 3.64552765e+00 1.40001751e-02 
138 1531.03 3.68585813e+00 1.84280778e-02 
137 1532.36 3.62301402e+00 2.21452717e-02 
136 1533.69 3.65851530e+00 2.42613718e-02 
135 1535.02 3.59125133e+00 2.46016916e-02 
134 1536.34 3.61825685e+00 2.28388449e-02 
133 1537.67 3.54591438e+00 1.75365554e-02 
132 1538.99 3.57162669e+00 1.96624618e-02 
131 1540.31 3.51328747e+00 1.80746093e-02 
130 1541.64 3.55650450e+00 1.86122293e-02 
129 1542.96 3.52074166e+00 2.67467305e-02 
128 1544.28 3.56418696e+00 2.46419223e-02 
127 1545.60 3.49755691e+00 3.35526551e-02 
126 1546.91 3.53240754e+00 2.97851236e-02 
125 1548.23 3.45156045e+00 2.56858102e-02 
124 1549.55 3.48980780e+00 2.27993168e-02 
123 1550.86 3.41852084e+00 2.11338194e-02 
122 1552.18 3.42995338e+00 1.98295261e-02 
121 1553.49 3.36285475e+00 1.50100188e-02 
120 1554.80 3.38017805e+00 1.74888737e-02 
119 1556.11 3.30850583e+00 6.96102217e-03 
118 1557.42 3.34706008e+00 6.23993029e-03 
117 1558.73 3.28945438e+00 5.07141782e-03 
116 1560.04 3.31297124e+00 8.93021771e-03 
115 1561.34 3.22903062e+00 5.15730780e-03 
114 1562.65 3.26545291e+00 7.80088683e-03 
113 1563.95 3.19283534e+00 1.27786023e-02 
112 1565.26 3.24633709e+00 1.77775251e-02 
111 1566.56 3.13992915e+00 1.54785610e-02 
110 1567.86 3.18348984e+00 2.74057084e-02 
109 1569.16 3.10665435e+00 3.61786136e-02 
108 1570.46 3.10491575e+00 3.98042744e-02 
107 1571.76 3.01482719e+00 4.67168039e-02 
106 1573.05 2.99674643e+00 3.64338873e-02 
105 1574.35 2.89436983e+00 3.85393412e-02 
104 1575.64 2.90728886e+00 3.43848638e-02 
103 1576.94 2.87337600e+00 3.92669570e-02 
102 1578.23 2.93099363e+00 3.62611301e-02 
101 1579.52 2.90007824e+00 3.39175481e-02 
100 1580.81 2.97238684e+00 3.54960231e-02 
99 1582.10 2.91815155e+00 3.45502736e-02 
98 1583.39 2.97669650e+00 2.41893636e-02 
97 1584.68 2.91234472e+00 2.67383274e-02 
96 1585.97 2.91256003e+00 2.17504828e-02 
95 1587.25 2.81113711e+00 1.94745422e-02 
94 1588.54 2.82529745e+00 1.87042677e-02 
93 1589.82 2.76037696e+00 1.99499294e-02 
92 1591.10 2.82975677e+00 1.93080059e-02 
91 1592.38 2.78190550e+00 1.37186797e-02 
90 1593.66 2.83100423e+00 1.04396244e-02 
89 1594.94 2.75957313e+00 1.95686779e-02 
88 1596.22 2.79006808e+00 2.46516412e-02 
87 1597.50 2.72185384e+00 3.61869473e-02 
86 1598.77 2.74532954e+00 4.20989029e-02 
85 1600.05 2.66873059e+00 4.49678678e-02 
84 1601.32 2.68599168e+00 4.40567470e-02 
83 1602.59 2.60948754e+00 4.95351888e-02 
82 1603.86 2.65720439e+00 4.47178160e-02 
81 1605.13 2.54512091e+00 4.39006432e-02 
80 1606.40 2.60356780e+00 4.41910346e-02 
79 1607.67 2.51350133e+00 5.18854702e-02 
78 1608.94 2.55833303e+00 4.69173810e-02 
77 1610.20 2.49818698e+00 4.44221711e-02 
76 1611.47 2.55646065e+00 3.59067358e-02 
75 1612.73 2.50179014e+00 3.45534540e-02 
74 1614.00 2.55680878e+00 2.98990583e-02 
73 1615.26 2.48828008e+00 2.56383374e-02 
72 1616.52 2.51080555e+00 2.54746918e-02 
71 1617.78 2.41663465e+00 2.86743522e-02 
70 1619.03 2.44262518e+00 1.93196160e-02 
69 1620.29 2.38443404e+00 2.17699374e-02 
68 1621.55 2.42597416e+00 1.74813653e-02 
67 1622.80 2.36035270e+00 2.81976613e-02 
66 1624.06 2.42190847e+00 2.06351253e-02 
65 1625.31 2.33642942e+00 1.80681782e-02 
64 1626.56 2.38967840e+00 1.29493578e-02 
63 1627.81 2.31327431e+00 1.45633877e-02 
