% Radiance calibration [Resp in cts/ms / W/m^2/nm/sr] for 4STAR NIR spectrometer (512 channels) derived from 4STAR_Spectralon_panel_203709 on 2019-05-03 11:20:44. 
% Calibration used only data with Spectralon_panel and 1000 ms (vis), 20 ms (nir). 
% Also requires calibrated radiance from 4STAR_20180210_002.dat. 
Pix  Wavelength     resp       rate        rad 
511  949.79  8.36970061e-02 1.37909412e+01 1.64772209e-04 
510  949.79  8.75922218e-02 1.44053555e+01 1.64459299e-04 
509  951.68  9.29278433e-02 1.52997389e+01 1.64641067e-04 
508  953.57  9.59208682e-02 1.57964554e+01 1.64682162e-04 
507  955.46  1.02163874e-01 1.68082390e+01 1.64522338e-04 
506  957.34  1.05887331e-01 1.74877377e+01 1.65154212e-04 
505  959.22  1.11911498e-01 1.86152725e+01 1.66339232e-04 
504  961.10  1.15790300e-01 1.92998219e+01 1.66679092e-04 
503  962.98  1.21555269e-01 2.03853302e+01 1.67704216e-04 
502  964.85  1.23882942e-01 2.08961143e+01 1.68676284e-04 
501  966.72  1.30734310e-01 2.21502972e+01 1.69429870e-04 
500  968.59  1.33982748e-01 2.28080082e+01 1.70230938e-04 
499  970.45  1.38947889e-01 2.36954651e+01 1.70534899e-04 
498  972.32  1.40783772e-01 2.38945656e+01 1.69725288e-04 
497  974.18  1.45348191e-01 2.45307255e+01 1.68772138e-04 
496  976.04  1.46380618e-01 2.46955757e+01 1.68707949e-04 
495  977.89  1.51232123e-01 2.54603367e+01 1.68352693e-04 
494  979.74  1.52359262e-01 2.56904507e+01 1.68617582e-04 
493  981.59  1.56074420e-01 2.63342533e+01 1.68728817e-04 
492  983.44  1.56522334e-01 2.64045792e+01 1.68695289e-04 
491  985.29  1.58979669e-01 2.67968712e+01 1.68555329e-04 
490  987.13  1.58438012e-01 2.66675758e+01 1.68315513e-04 
489  988.97  1.60567179e-01 2.69774647e+01 1.68013576e-04 
488  990.81  1.59963429e-01 2.67860985e+01 1.67451391e-04 
487  992.65  1.61688596e-01 2.69247074e+01 1.66521990e-04 
486  994.48  1.60477296e-01 2.66695156e+01 1.66188722e-04 
485  996.31  1.62177965e-01 2.68275681e+01 1.65420541e-04 
484  998.14  1.60485521e-01 2.64543533e+01 1.64839512e-04 
483  999.97  1.61786839e-01 2.65733128e+01 1.64248908e-04 
482  1001.79  1.59400806e-01 2.60282860e+01 1.63288292e-04 
481  1003.62  1.59190804e-01 2.59410248e+01 1.62955548e-04 
480  1005.44  1.58094853e-01 2.56019573e+01 1.61940479e-04 
479  1007.25  1.60985827e-01 2.59295311e+01 1.61067161e-04 
478  1009.07  1.59748971e-01 2.57338848e+01 1.61089527e-04 
477  1010.88  1.61135018e-01 2.59018192e+01 1.60746058e-04 
476  1012.69  1.58850968e-01 2.54411068e+01 1.60157084e-04 
475  1014.50  1.59557834e-01 2.54607925e+01 1.59570933e-04 
474  1016.31  1.57870948e-01 2.51127930e+01 1.59071642e-04 
473  1018.11  1.59252197e-01 2.52166977e+01 1.58344425e-04 
472  1019.91  1.57193467e-01 2.47577209e+01 1.57498405e-04 
471  1021.71  1.58879206e-01 2.49122238e+01 1.56799782e-04 
470  1023.51  1.56485260e-01 2.45000420e+01 1.56564536e-04 
469  1025.30  1.58365861e-01 2.47087936e+01 1.56023481e-04 
468  1027.09  1.58308178e-01 2.46383724e+01 1.55635513e-04 
467  1028.88  1.60109177e-01 2.47766323e+01 1.54748370e-04 
466  1030.67  1.59028843e-01 2.44867878e+01 1.53977016e-04 
465  1032.46  1.61794052e-01 2.47215939e+01 1.52796682e-04 
464  1034.24  1.61035255e-01 2.45161209e+01 1.52240711e-04 
463  1036.02  1.63233548e-01 2.47239513e+01 1.51463668e-04 
462  1037.80  1.63826644e-01 2.46989918e+01 1.50762979e-04 
461  1039.58  1.66250423e-01 2.50148582e+01 1.50464926e-04 
460  1041.35  1.65697426e-01 2.48513584e+01 1.49980362e-04 
459  1043.12  1.67982861e-01 2.51049328e+01 1.49449377e-04 
458  1044.89  1.68766022e-01 2.50788898e+01 1.48601539e-04 
457  1046.66  1.71768010e-01 2.54423485e+01 1.48120409e-04 
456  1048.43  1.72310218e-01 2.54653206e+01 1.47787636e-04 
455  1050.19  1.75545916e-01 2.58774567e+01 1.47411323e-04 
454  1051.95  1.75478324e-01 2.57502480e+01 1.46743187e-04 
453  1053.71  1.78169310e-01 2.61319637e+01 1.46669277e-04 
452  1055.47  1.77693233e-01 2.59159050e+01 1.45846323e-04 
451  1057.23  1.79686204e-01 2.60302315e+01 1.44864942e-04 
450  1058.98  1.79197803e-01 2.58314285e+01 1.44150370e-04 
449  1060.73  1.82047859e-01 2.60820637e+01 1.43270372e-04 
448  1062.48  1.81144863e-01 2.58114395e+01 1.42490593e-04 
447  1064.23  1.82880238e-01 2.59249439e+01 1.41759141e-04 
446  1065.97  1.79508060e-01 2.53657227e+01 1.41306868e-04 
445  1067.71  1.79636866e-01 2.52172756e+01 1.40379183e-04 
444  1069.46  1.77778393e-01 2.48701801e+01 1.39894284e-04 
443  1071.19  1.79044962e-01 2.49521027e+01 1.39362208e-04 
442  1072.93  1.77759990e-01 2.47541714e+01 1.39256153e-04 
441  1074.67  1.78570136e-01 2.48347435e+01 1.39075564e-04 
440  1076.40  1.76532134e-01 2.44912987e+01 1.38735631e-04 
439  1078.13  1.76858515e-01 2.44219627e+01 1.38087576e-04 
438  1079.86  1.73739985e-01 2.39398251e+01 1.37791110e-04 
437  1081.58  1.74520627e-01 2.39087696e+01 1.36996809e-04 
436  1083.31  1.74421161e-01 2.37806606e+01 1.36340459e-04 
435  1085.03  1.76749393e-01 2.39941616e+01 1.35752445e-04 
434  1086.75  1.77499712e-01 2.39531574e+01 1.34947579e-04 
433  1088.47  1.80275634e-01 2.41912212e+01 1.34190181e-04 
432  1090.19  1.80715308e-01 2.41489601e+01 1.33629845e-04 
431  1091.90  1.82202309e-01 2.41886539e+01 1.32757123e-04 
430  1093.61  1.81422845e-01 2.39302998e+01 1.31903449e-04 
429  1095.33  1.84871480e-01 2.42470989e+01 1.31156514e-04 
428  1097.03  1.88303798e-01 2.45039959e+01 1.30130124e-04 
427  1098.74  1.92052856e-01 2.49587021e+01 1.29957465e-04 
426  1100.45  1.94015056e-01 2.51266861e+01 1.29508946e-04 
425  1102.15  1.99006468e-01 2.57243557e+01 1.29263921e-04 
424  1103.85  2.00509563e-01 2.58265877e+01 1.28804764e-04 
423  1105.55  2.05144897e-01 2.63257656e+01 1.28327665e-04 
422  1107.25  2.05973953e-01 2.62760296e+01 1.27569670e-04 
421  1108.94  2.08181679e-01 2.62721634e+01 1.26198254e-04 
420  1110.64  2.06221715e-01 2.56438427e+01 1.24350830e-04 
419  1112.33  2.05307454e-01 2.49024048e+01 1.21293233e-04 
418  1114.02  1.99007362e-01 2.32388420e+01 1.16773779e-04 
417  1115.70  1.96796998e-01 2.24236469e+01 1.13943031e-04 
416  1117.39  1.92765817e-01 2.14172001e+01 1.11104768e-04 
415  1119.07  1.91049814e-01 2.08493004e+01 1.09130182e-04 
414  1120.76  1.90010056e-01 2.03232021e+01 1.06958556e-04 
413  1122.44  1.89899921e-01 2.00095806e+01 1.05369079e-04 
412  1124.12  1.90454468e-01 1.98965225e+01 1.04468658e-04 
411  1125.79  1.94420397e-01 2.04261017e+01 1.05061517e-04 
410  1127.47  1.98598057e-01 2.10933189e+01 1.06211104e-04 
409  1129.14  2.06588998e-01 2.25120029e+01 1.08970002e-04 
408  1130.81  2.01093465e-01 2.15157070e+01 1.06993561e-04 
407  1132.48  1.96880341e-01 2.05552444e+01 1.04404753e-04 
406  1134.15  1.94956735e-01 2.02701626e+01 1.03972619e-04 
405  1135.81  2.00189471e-01 2.12593460e+01 1.06196123e-04 
404  1137.48  2.12807328e-01 2.35123882e+01 1.10486741e-04 
403  1139.14  2.18524829e-01 2.45394764e+01 1.12296060e-04 
402  1140.80  2.14940697e-01 2.39551392e+01 1.11449990e-04 
401  1142.46  2.12404400e-01 2.30939407e+01 1.08726279e-04 
400  1144.12  2.08039373e-01 2.21616173e+01 1.06526073e-04 
399  1145.77  2.07403466e-01 2.19245777e+01 1.05709791e-04 
398  1147.43  2.08695337e-01 2.21867123e+01 1.06311483e-04 
397  1149.08  2.11541981e-01 2.28778591e+01 1.08148080e-04 
396  1150.73  2.12931007e-01 2.31349354e+01 1.08649918e-04 
395  1152.38  2.17853010e-01 2.37887897e+01 1.09196510e-04 
394  1154.02  2.19696283e-01 2.42160072e+01 1.10224930e-04 
393  1155.67  2.26004303e-01 2.51402454e+01 1.11237910e-04 
392  1157.31  2.26158872e-01 2.53621407e+01 1.12143025e-04 
391  1158.95  2.28460521e-01 2.56952877e+01 1.12471462e-04 
390  1160.59  2.29371250e-01 2.59455643e+01 1.13116024e-04 
389  1162.23  2.32755050e-01 2.64046421e+01 1.13443908e-04 
388  1163.87  2.33143434e-01 2.65159836e+01 1.13732487e-04 
387  1165.50  2.33988583e-01 2.66459923e+01 1.13877322e-04 
386  1167.13  2.33141780e-01 2.65766068e+01 1.13993323e-04 
385  1168.76  2.34259203e-01 2.68037987e+01 1.14419403e-04 
384  1170.39  2.32699588e-01 2.65508862e+01 1.14099406e-04 
383  1172.02  2.31722236e-01 2.63691235e+01 1.13796261e-04 
382  1173.65  2.28944629e-01 2.59919720e+01 1.13529517e-04 
381  1175.27  2.28668362e-01 2.58193493e+01 1.12911774e-04 
380  1176.90  2.27466807e-01 2.56877937e+01 1.12929854e-04 
379  1178.52  2.26447567e-01 2.53916645e+01 1.12130438e-04 
378  1180.14  2.22349957e-01 2.48296814e+01 1.11669382e-04 
377  1181.75  2.21035957e-01 2.45681686e+01 1.11150104e-04 
376  1183.37  2.17968106e-01 2.41966133e+01 1.11009882e-04 
375  1184.99  2.17937052e-01 2.41272449e+01 1.10707406e-04 
374  1186.60  2.16512471e-01 2.39616852e+01 1.10671157e-04 
373  1188.21  2.15325207e-01 2.38067856e+01 1.10562003e-04 
372  1189.82  2.14447826e-01 2.37425957e+01 1.10715024e-04 
371  1191.43  2.18589678e-01 2.41582222e+01 1.10518587e-04 
370  1193.04  2.17488050e-01 2.39705391e+01 1.10215435e-04 
369  1194.64  2.16537416e-01 2.37550201e+01 1.09703993e-04 
368  1196.24  2.14226171e-01 2.33078728e+01 1.08800305e-04 
367  1197.85  2.14582801e-01 2.32568855e+01 1.08381872e-04 
366  1199.45  2.13391647e-01 2.29980698e+01 1.07773994e-04 
365  1201.05  2.14782566e-01 2.29733601e+01 1.06961008e-04 
364  1202.64  2.15385526e-01 2.29555111e+01 1.06578707e-04 
363  1204.24  2.15862080e-01 2.29372540e+01 1.06258842e-04 
362  1205.83  2.15173423e-01 2.28422470e+01 1.06157378e-04 
361  1207.43  2.15402767e-01 2.29150734e+01 1.06382446e-04 
360  1209.02  2.14689404e-01 2.28785648e+01 1.06565880e-04 
359  1210.61  2.16950253e-01 2.31020832e+01 1.06485626e-04 
358  1212.19  2.17410818e-01 2.31665611e+01 1.06556618e-04 
357  1213.78  2.19530493e-01 2.33997765e+01 1.06590094e-04 
356  1215.37  2.19536036e-01 2.33528748e+01 1.06373765e-04 
355  1216.95  2.20185623e-01 2.34221287e+01 1.06374471e-04 
354  1218.53  2.20510647e-01 2.33975124e+01 1.06106047e-04 
353  1220.11  2.22028509e-01 2.34675713e+01 1.05696206e-04 
352  1221.69  2.22914636e-01 2.35188103e+01 1.05505904e-04 
351  1223.27  2.24154100e-01 2.35774612e+01 1.05184168e-04 
350  1224.84  2.25435734e-01 2.36905899e+01 1.05087995e-04 
349  1226.42  2.26307318e-01 2.37760792e+01 1.05061030e-04 
348  1227.99  2.27353588e-01 2.38069210e+01 1.04713195e-04 
347  1229.56  2.30110347e-01 2.40007286e+01 1.04300954e-04 
346  1231.13  2.29984373e-01 2.39574127e+01 1.04169740e-04 
345  1232.70  2.31803417e-01 2.40544605e+01 1.03770944e-04 
344  1234.27  2.31861323e-01 2.40119228e+01 1.03561571e-04 
343  1235.84  2.31977835e-01 2.39049244e+01 1.03048318e-04 
342  1237.40  2.32081011e-01 2.38060951e+01 1.02576661e-04 
341  1238.96  2.32372209e-01 2.37119484e+01 1.02042963e-04 
340  1240.52  2.29631752e-01 2.33789272e+01 1.01810518e-04 
339  1242.08  2.31754810e-01 2.35601254e+01 1.01659702e-04 
338  1243.64  2.32268125e-01 2.35775890e+01 1.01510224e-04 
337  1245.20  2.33253360e-01 2.36071529e+01 1.01208199e-04 
336  1246.75  2.34612614e-01 2.35863667e+01 1.00533245e-04 
335  1248.31  2.35594854e-01 2.35673428e+01 1.00033350e-04 
334  1249.86  2.35331163e-01 2.34723511e+01 9.97417883e-05 
333  1251.41  2.35543236e-01 2.34432945e+01 9.95286246e-05 
332  1252.96  2.35186681e-01 2.33024635e+01 9.90807093e-05 
331  1254.51  2.35364497e-01 2.31051483e+01 9.81675184e-05 
330  1256.06  2.35570952e-01 2.29235630e+01 9.73106507e-05 
329  1257.61  2.35260129e-01 2.26414661e+01 9.62401318e-05 
328  1259.15  2.34125391e-01 2.23031883e+01 9.52617265e-05 
327  1260.69  2.32264653e-01 2.18620014e+01 9.41253893e-05 
326  1262.23  2.30380625e-01 2.14624138e+01 9.31606701e-05 
325  1263.77  2.30546176e-01 2.11848145e+01 9.18896840e-05 
324  1265.31  2.27618292e-01 2.05548286e+01 9.03039399e-05 
323  1266.85  2.28969783e-01 2.04387093e+01 8.92637836e-05 
322  1268.39  2.30061531e-01 2.06809540e+01 8.98931394e-05 
321  1269.92  2.31290892e-01 2.10310249e+01 9.09288938e-05 
320  1271.46  2.36944452e-01 2.19201584e+01 9.25118002e-05 
319  1272.99  2.38365173e-01 2.22317505e+01 9.32676121e-05 
318  1274.52  2.39874333e-01 2.23720379e+01 9.32656621e-05 
317  1276.05  2.42133483e-01 2.25622501e+01 9.31810428e-05 
316  1277.58  2.40801260e-01 2.24570847e+01 9.32598268e-05 
315  1279.10  2.37330422e-01 2.20605736e+01 9.29529924e-05 
314  1280.63  2.36808896e-01 2.19780960e+01 9.28094232e-05 
313  1282.15  2.37577766e-01 2.20182457e+01 9.26780558e-05 
312  1283.68  2.40734264e-01 2.23395748e+01 9.27976507e-05 
311  1285.20  2.45374113e-01 2.27900486e+01 9.28787849e-05 
310  1286.72  2.45029375e-01 2.28339024e+01 9.31884279e-05 
309  1288.24  2.44243652e-01 2.27965622e+01 9.33353294e-05 
308  1289.75  2.41424575e-01 2.26310406e+01 9.37395889e-05 
307  1291.27  2.41101876e-01 2.26343842e+01 9.38789235e-05 
306  1292.78  2.42709428e-01 2.27735939e+01 9.38306985e-05 
305  1294.30  2.42061958e-01 2.26862946e+01 9.37210280e-05 
304  1295.81  2.41890684e-01 2.25880032e+01 9.33810370e-05 
303  1297.32  2.41088822e-01 2.24402428e+01 9.30787355e-05 
302  1298.83  2.40478978e-01 2.22998734e+01 9.27310684e-05 
301  1300.34  2.37955689e-01 2.20527611e+01 9.26759167e-05 
300  1301.85  2.38067269e-01 2.19290257e+01 9.21127285e-05 
299  1303.35  2.36527845e-01 2.17228718e+01 9.18406513e-05 
298  1304.86  2.36223340e-01 2.15092525e+01 9.10547315e-05 
297  1306.36  2.36304328e-01 2.13740234e+01 9.04512563e-05 
296  1307.86  2.35594347e-01 2.12337914e+01 9.01286112e-05 
295  1309.36  2.33896047e-01 2.09317894e+01 8.94918485e-05 
294  1310.86  2.33258098e-01 2.06494503e+01 8.85261907e-05 
293  1312.36  2.31188491e-01 2.03888836e+01 8.81916058e-05 
292  1313.86  2.30182663e-01 2.02089958e+01 8.77954735e-05 
291  1315.36  2.28898078e-01 2.00922508e+01 8.77781567e-05 
290  1316.85  2.28708073e-01 2.00031300e+01 8.74614052e-05 
289  1318.34  2.28416160e-01 1.98551254e+01 8.69252253e-05 
288  1319.84  2.27539033e-01 1.96912556e+01 8.65401234e-05 
287  1321.33  2.27333158e-01 1.96145382e+01 8.62810266e-05 
286  1322.82  2.27106199e-01 1.96231499e+01 8.64051690e-05 
285  1324.30  2.25767240e-01 1.94259224e+01 8.60440268e-05 
284  1325.79  2.22938567e-01 1.90086002e+01 8.52638477e-05 
283  1327.28  2.19538972e-01 1.84540119e+01 8.40580251e-05 
282  1328.76  2.14937970e-01 1.76946735e+01 8.23245573e-05 
281  1330.25  2.11594269e-01 1.72061920e+01 8.13169099e-05 
280  1331.73  2.11831316e-01 1.71447029e+01 8.09356425e-05 
279  1333.21  2.10859895e-01 1.70728760e+01 8.09678677e-05 
278  1334.69  2.11927921e-01 1.71796474e+01 8.10636338e-05 
277  1336.17  2.10513219e-01 1.70786648e+01 8.11287027e-05 
276  1337.65  2.08142936e-01 1.67823868e+01 8.06291428e-05 
275  1339.12  2.05756783e-01 1.65685081e+01 8.05247255e-05 
274  1340.60  2.04315424e-01 1.62949047e+01 7.97536704e-05 
273  1342.07  2.00787514e-01 1.56155701e+01 7.77716195e-05 
272  1343.55  1.96708709e-01 1.49702673e+01 7.61037372e-05 
271  1345.02  1.84248582e-01 1.33039999e+01 7.22067998e-05 
270  1346.49  1.76458940e-01 1.21318398e+01 6.87516294e-05 
269  1347.96  1.66329369e-01 1.08006535e+01 6.49353315e-05 
268  1349.43  1.56242520e-01 9.38212681e+00 6.00484855e-05 
267  1350.89  1.45261392e-01 8.16926956e+00 5.62384121e-05 
266  1352.36  1.30678326e-01 6.44729424e+00 4.93371372e-05 
265  1353.82  1.20633639e-01 5.35251617e+00 4.43700119e-05 
264  1355.29  1.08779788e-01 4.31800270e+00 3.96948999e-05 
263  1356.75  1.01391450e-01 3.60884643e+00 3.55932025e-05 
262  1358.21  9.12603289e-02 2.99052620e+00 3.27691814e-05 
261  1359.67  7.74149746e-02 2.27094579e+00 2.93347093e-05 
260  1361.13  7.41918162e-02 1.99730802e+00 2.69208685e-05 
259  1362.59  7.15068653e-02 1.91894627e+00 2.68358308e-05 
258  1364.04  7.80374110e-02 2.22492433e+00 2.85109963e-05 
257  1365.50  7.84606487e-02 2.16075683e+00 2.75393704e-05 
256  1366.95  7.41338432e-02 2.13701344e+00 2.88264218e-05 
255  1368.41  7.26112872e-02 1.94895446e+00 2.68409294e-05 
254  1369.86  7.45035782e-02 1.96327877e+00 2.63514703e-05 
253  1371.31  8.09091628e-02 2.49403477e+00 3.08251219e-05 
252  1372.76  8.00491869e-02 2.94781160e+00 3.68250039e-05 
251  1374.21  8.62837434e-02 3.45131946e+00 3.99996497e-05 
250  1375.65  8.47296119e-02 3.70358872e+00 4.37106792e-05 
249  1377.10  7.65079632e-02 3.40476489e+00 4.45020996e-05 
248  1378.55  6.58719763e-02 2.76082802e+00 4.19120261e-05 
247  1379.99  5.46557494e-02 2.02265835e+00 3.70072376e-05 
246  1381.43  4.66667004e-02 1.46405053e+00 3.13724886e-05 
245  1382.87  4.84055318e-02 1.32004142e+00 2.72704674e-05 
244  1384.32  5.41185774e-02 1.66792572e+00 3.08198360e-05 
243  1385.75  6.11495078e-02 2.18655419e+00 3.57575118e-05 
242  1387.19  7.12543130e-02 2.99117422e+00 4.19788521e-05 
241  1388.63  7.65061378e-02 3.51519275e+00 4.59465446e-05 
240  1390.07  7.83693641e-02 3.61504078e+00 4.61282361e-05 
239  1391.50  7.88100138e-02 3.52442122e+00 4.47204729e-05 
238  1392.94  6.63639978e-02 2.76382422e+00 4.16464391e-05 
237  1394.37  7.05961436e-02 2.70313406e+00 3.82901126e-05 
236  1395.80  7.79528394e-02 3.23783064e+00 4.15357645e-05 
235  1397.23  7.69973472e-02 3.10284781e+00 4.02981132e-05 
234  1398.66  7.91388080e-02 3.34114385e+00 4.22187804e-05 
233  1400.09  8.72441158e-02 3.74683022e+00 4.29465072e-05 
232  1401.52  8.31600726e-02 3.37184334e+00 4.05464234e-05 
231  1402.94  8.96724984e-02 3.72848773e+00 4.15789436e-05 
230  1404.37  9.35845450e-02 4.12829208e+00 4.41129669e-05 
229  1405.79  9.28089693e-02 3.92956471e+00 4.23403544e-05 
228  1407.22  9.38850045e-02 4.02664185e+00 4.28890817e-05 
227  1408.64  9.96140316e-02 4.42726707e+00 4.44442121e-05 
226  1410.06  1.06966913e-01 5.05521679e+00 4.72596294e-05 
225  1411.48  1.08116768e-01 5.13857508e+00 4.75280140e-05 
224  1412.90  1.13612212e-01 5.62125874e+00 4.94775923e-05 
223  1414.32  1.19242683e-01 6.11641645e+00 5.12938532e-05 
222  1415.73  1.19093731e-01 5.98514652e+00 5.02557632e-05 
221  1417.15  1.20274574e-01 6.00441551e+00 4.99225680e-05 
220  1418.56  1.25328600e-01 6.43589020e+00 5.13521300e-05 
219  1419.98  1.25149593e-01 6.43544674e+00 5.14220337e-05 
218  1421.39  1.28472850e-01 6.73504066e+00 5.24238421e-05 
217  1422.80  1.34855285e-01 7.40050173e+00 5.48773569e-05 
216  1424.21  1.37342408e-01 7.66062260e+00 5.57775456e-05 
215  1425.62  1.37250647e-01 7.54398966e+00 5.49650613e-05 
214  1427.03  1.40754551e-01 7.90757847e+00 5.61799170e-05 
213  1428.44  1.37622282e-01 7.72916746e+00 5.61621819e-05 
212  1429.84  1.32645369e-01 7.24721718e+00 5.46360316e-05 
211  1431.25  1.32229209e-01 7.25825500e+00 5.48914650e-05 
210  1432.65  1.31961644e-01 7.22009420e+00 5.47135824e-05 
209  1434.06  1.33782506e-01 7.22430897e+00 5.40004039e-05 
208  1435.46  1.37914225e-01 7.46259546e+00 5.41104127e-05 
207  1436.86  1.39312759e-01 7.60469675e+00 5.45872208e-05 
206  1438.26  1.40654355e-01 7.67824554e+00 5.45894582e-05 
205  1439.66  1.41752198e-01 7.81498480e+00 5.51313133e-05 
204  1441.05  1.47159219e-01 8.36591721e+00 5.68494252e-05 
203  1442.45  1.45639002e-01 8.29172516e+00 5.69334115e-05 
202  1443.85  1.44673988e-01 8.27773762e+00 5.72164899e-05 
201  1445.24  1.48162037e-01 8.71046162e+00 5.87901086e-05 
200  1446.64  1.50402486e-01 8.95571041e+00 5.95449637e-05 
199  1448.03  1.48252681e-01 8.68944073e+00 5.86123642e-05 
198  1449.42  1.51873454e-01 8.93688011e+00 5.88442526e-05 
197  1450.81  1.53106809e-01 9.08428669e+00 5.93330005e-05 
196  1452.20  1.54248774e-01 9.24456120e+00 5.99327977e-05 
195  1453.59  1.60833091e-01 9.99216652e+00 6.21275540e-05 
194  1454.97  1.67647257e-01 1.07381268e+01 6.40519138e-05 
193  1456.36  1.68167651e-01 1.09254055e+01 6.49673384e-05 
192  1457.75  1.69215679e-01 1.10197830e+01 6.51227092e-05 
191  1459.13  1.69467360e-01 1.09482269e+01 6.46037515e-05 
190  1460.51  1.68515772e-01 1.07806969e+01 6.39744103e-05 
189  1461.90  1.64924428e-01 1.04205112e+01 6.31835574e-05 
188  1463.28  1.62573799e-01 1.01313963e+01 6.23187516e-05 
187  1464.66  1.58503577e-01 9.75242805e+00 6.15281242e-05 
186  1466.04  1.59862801e-01 9.74955082e+00 6.09869894e-05 
185  1467.41  1.56314775e-01 9.24076557e+00 5.91163916e-05 
