% C0 (TOA Count Rate, /ms) for 4STAR VIS spectrometer (1044 channels) derived from (SEE Original files for sources) and recorded on 2018-09-10 11:23:37.
% Langley at MLO outside of 1.8x the STD of 501 nm Langley residuals were screened out. 
% c0 from best days at MLO
% Averages of c0 from multiple days including: 2018-08-11 AM, 2018-08-12 AM.
% C:\_star\IOP\MLO\MLO_2018_Aug\starmat\20180811_4STAR_VIS_C0_refined_ground_langley_am.dat
% C:\_star\IOP\MLO\MLO_2018_Aug\starmat\20180812_4STAR_VIS_C0_refined_ground_langley_am.dat
Pix Wavelength C0 C0err
0 173.18 -1.00000000e+00 0.00000000e+00 
1 173.98 -1.00000000e+00 0.00000000e+00 
2 174.77 -1.00000000e+00 0.00000000e+00 
3 175.56 -1.00000000e+00 0.00000000e+00 
4 176.36 -1.00000000e+00 0.00000000e+00 
5 177.15 -1.00000000e+00 0.00000000e+00 
6 177.94 -1.00000000e+00 0.00000000e+00 
7 178.74 -1.00000000e+00 0.00000000e+00 
8 179.53 -1.00000000e+00 0.00000000e+00 
9 180.33 -1.00000000e+00 0.00000000e+00 
10 181.12 -1.00000000e+00 0.00000000e+00 
11 181.92 -1.00000000e+00 0.00000000e+00 
12 182.71 -1.00000000e+00 0.00000000e+00 
13 183.51 -1.00000000e+00 0.00000000e+00 
14 184.30 -1.00000000e+00 0.00000000e+00 
15 185.10 -1.00000000e+00 0.00000000e+00 
16 185.89 -1.00000000e+00 0.00000000e+00 
17 186.69 -1.00000000e+00 0.00000000e+00 
18 187.49 -1.00000000e+00 0.00000000e+00 
19 188.28 -1.00000000e+00 0.00000000e+00 
20 189.08 -1.00000000e+00 0.00000000e+00 
21 189.88 -1.00000000e+00 0.00000000e+00 
22 190.67 -1.00000000e+00 0.00000000e+00 
23 191.47 -1.00000000e+00 0.00000000e+00 
24 192.27 -1.00000000e+00 0.00000000e+00 
25 193.07 -1.00000000e+00 0.00000000e+00 
26 193.86 -1.00000000e+00 0.00000000e+00 
27 194.66 -1.00000000e+00 0.00000000e+00 
28 195.46 -1.00000000e+00 0.00000000e+00 
29 196.26 -1.00000000e+00 0.00000000e+00 
30 197.05 -1.00000000e+00 0.00000000e+00 
31 197.85 -1.00000000e+00 0.00000000e+00 
32 198.65 -1.00000000e+00 0.00000000e+00 
33 199.45 -1.00000000e+00 0.00000000e+00 
34 200.25 -1.00000000e+00 0.00000000e+00 
35 201.05 -1.00000000e+00 0.00000000e+00 
36 201.85 -1.00000000e+00 0.00000000e+00 
37 202.65 -1.00000000e+00 0.00000000e+00 
38 203.44 -1.00000000e+00 0.00000000e+00 
39 204.24 -1.00000000e+00 0.00000000e+00 
40 205.04 -1.00000000e+00 0.00000000e+00 
41 205.84 -1.00000000e+00 0.00000000e+00 
42 206.64 -1.00000000e+00 0.00000000e+00 
43 207.44 -1.00000000e+00 0.00000000e+00 
44 208.24 -1.00000000e+00 0.00000000e+00 
45 209.04 -1.00000000e+00 0.00000000e+00 
46 209.84 -1.00000000e+00 0.00000000e+00 
47 210.64 -1.00000000e+00 0.00000000e+00 
48 211.44 -1.00000000e+00 0.00000000e+00 
49 212.24 -1.00000000e+00 0.00000000e+00 
50 213.04 -1.00000000e+00 0.00000000e+00 
51 213.85 -1.00000000e+00 0.00000000e+00 
52 214.65 -1.00000000e+00 0.00000000e+00 
53 215.45 9.71230745e-01 2.78774125e+00 
54 216.25 1.89077782e+00 4.08817721e+00 
55 217.05 1.60148406e+00 3.67905404e+00 
56 217.85 2.06912136e+00 4.34039305e+00 
57 218.65 1.93536616e+00 4.15123463e+00 
58 219.46 2.01518560e+00 4.26411636e+00 
59 220.26 2.01520491e+00 4.26414367e+00 
60 221.06 1.91724372e+00 4.12560563e+00 
61 221.86 1.99483180e+00 4.23533175e+00 
62 222.66 2.03746653e+00 4.29562635e+00 
63 223.47 2.04223346e+00 4.30236783e+00 
64 224.27 2.14005804e+00 4.44071267e+00 
65 225.07 2.12928390e+00 4.42547574e+00 
66 225.87 2.18626070e+00 4.50605310e+00 
67 226.68 2.17695188e+00 4.49288844e+00 
68 227.48 2.24950195e+00 4.59548972e+00 
69 228.28 1.13037918e+01 7.97290150e+00 
70 229.08 8.80609370e+00 4.39036575e+00 
71 229.89 1.17372656e+01 8.41084528e+00 
72 230.69 1.08243663e+01 7.08729302e+00 
73 231.49 9.74561954e+00 5.73442098e+00 
74 232.30 9.73624159e+00 5.81316007e+00 
75 233.10 2.19360781e+00 4.51644347e+00 
76 233.90 2.10369253e+00 4.38928407e+00 
77 234.71 2.05491090e+00 4.32029643e+00 
78 235.51 1.99349976e+00 4.23344795e+00 
79 236.32 1.95051908e+00 4.17266411e+00 
80 237.12 1.85378409e+00 4.03586016e+00 
81 237.92 1.84326625e+00 4.02098569e+00 
82 238.73 1.76705122e+00 3.91320136e+00 
83 239.53 1.74067354e+00 3.87589769e+00 
84 240.34 1.87063479e+00 4.05969066e+00 
85 241.14 1.79410720e+00 3.95146430e+00 
86 241.94 1.83587670e+00 4.01053530e+00 
87 242.75 2.01524306e+00 4.26419762e+00 
88 243.55 6.97060705e-01 2.40000627e+00 
89 244.36 -1.00000000e+00 0.00000000e+00 
90 245.16 -1.00000000e+00 0.00000000e+00 
91 245.97 -1.00000000e+00 0.00000000e+00 
92 246.77 -1.00000000e+00 0.00000000e+00 
93 247.58 -1.00000000e+00 0.00000000e+00 
94 248.38 -1.00000000e+00 0.00000000e+00 
95 249.19 -1.00000000e+00 0.00000000e+00 
96 249.99 -1.00000000e+00 0.00000000e+00 
97 250.80 -1.00000000e+00 0.00000000e+00 
98 251.60 -1.00000000e+00 0.00000000e+00 
99 252.41 -1.00000000e+00 0.00000000e+00 
100 253.21 -1.00000000e+00 0.00000000e+00 
101 254.02 -1.00000000e+00 0.00000000e+00 
102 254.82 -1.00000000e+00 0.00000000e+00 
103 255.63 -1.00000000e+00 0.00000000e+00 
104 256.44 -1.00000000e+00 0.00000000e+00 
105 257.24 -1.00000000e+00 0.00000000e+00 
106 258.05 -1.00000000e+00 0.00000000e+00 
107 258.85 -1.00000000e+00 0.00000000e+00 
108 259.66 -1.00000000e+00 0.00000000e+00 
109 260.46 -1.00000000e+00 0.00000000e+00 
110 261.27 -1.00000000e+00 0.00000000e+00 
111 262.08 -1.00000000e+00 0.00000000e+00 
112 262.88 -1.00000000e+00 0.00000000e+00 
113 263.69 -1.00000000e+00 0.00000000e+00 
114 264.49 -1.00000000e+00 0.00000000e+00 
115 265.30 -1.06520146e-01 1.26357133e+00 
116 266.11 1.45427573e+00 3.47087002e+00 
117 266.91 1.41313112e+00 3.41268276e+00 
118 267.72 1.54773521e+00 3.60304169e+00 
119 268.53 1.54803204e+00 3.60346148e+00 
120 269.33 1.56931400e+00 3.63355871e+00 
121 270.14 1.64183712e+00 3.73612188e+00 
122 270.95 1.60235023e+00 3.68027900e+00 
123 271.75 1.65773011e+00 3.75859796e+00 
124 272.56 1.72167659e+00 3.84903195e+00 
125 273.37 1.80343747e+00 3.96465929e+00 
126 274.17 1.80408788e+00 3.96557910e+00 
127 274.98 1.90488243e+00 4.10812413e+00 
128 275.79 7.41420423e+02 1.04158830e+03 
129 276.59 9.01890658e+00 5.48592550e+00 
130 277.40 1.10497381e+01 8.18421899e+00 
131 278.21 1.17054875e+01 8.79368134e+00 
132 279.01 1.17234292e+01 9.06573117e+00 
133 279.82 1.15922959e+01 9.38044366e+00 
134 280.63 9.62237000e+00 7.17696059e+00 
135 281.43 8.51833651e+00 5.99853063e+00 
136 282.24 7.45440327e+00 4.96251913e+00 
137 283.05 6.60592628e+00 4.10983193e+00 
138 283.86 5.92094755e+00 3.48118470e+00 
139 284.66 5.27431119e+00 2.79961537e+00 
140 285.47 4.77587032e+00 2.35445378e+00 
141 286.28 4.35882807e+00 2.02737131e+00 
142 287.09 4.02492261e+00 1.72387252e+00 
143 287.89 3.73014510e+00 1.47354469e+00 
144 288.70 3.48815202e+00 1.23015254e+00 
145 289.51 3.19305885e+00 9.85774495e-01 
146 290.32 3.03628647e+00 9.40537437e-01 
147 291.12 2.82507395e+00 7.61540618e-01 
148 291.93 2.66400028e+00 6.35933903e-01 
149 292.74 2.61767792e+00 5.88443169e-01 
150 293.55 2.43197107e+00 4.69145671e-01 
151 294.35 2.35485255e+00 3.92729899e-01 
152 295.16 2.30324113e+00 4.27918474e-01 
153 295.97 2.15447027e+00 2.64023624e-01 
154 296.78 2.13696069e+00 2.71845229e-01 
155 297.58 2.06147522e+00 2.01229706e-01 
156 298.39 2.02970564e+00 2.02103747e-01 
157 299.20 1.99626183e+00 1.73548915e-01 
158 300.01 1.92506212e+00 1.52850521e-01 
159 300.81 1.92515099e+00 1.38568223e-01 
160 301.62 1.89913630e+00 1.42262467e-01 
161 302.43 1.83478326e+00 7.90770171e-02 
162 303.24 1.84913295e+00 8.25805897e-02 
163 304.04 1.80913097e+00 6.13294854e-02 
164 304.85 1.77296686e+00 3.18466611e-02 
165 305.66 1.77768302e+00 4.48981976e-02 
166 306.47 1.75569421e+00 5.16021073e-03 
167 307.28 1.76661116e+00 4.30650586e-02 
168 308.08 1.76762581e+00 6.13594031e-02 
169 308.89 1.74024087e+00 1.35538369e-02 
170 309.70 1.76193148e+00 5.57040620e-02 
171 310.51 1.74314278e+00 1.01374152e-02 
172 311.32 1.74586403e+00 3.27906628e-04 
173 312.12 1.73751235e+00 8.41622533e-03 
174 312.93 1.75641107e+00 1.46450229e-02 
175 313.74 1.76635915e+00 9.55797650e-03 
176 314.55 1.77410537e+00 4.54621577e-03 
177 315.36 1.76415199e+00 3.52650274e-02 
178 316.16 1.77018755e+00 1.14972381e-02 
179 316.97 1.80305242e+00 4.73895894e-04 
180 317.78 1.80292725e+00 2.11170864e-02 
181 318.59 1.79654080e+00 7.97163901e-04 
182 319.40 1.83249724e+00 1.03517746e-02 
183 320.20 1.80777078e+00 1.29130355e-02 
184 321.01 1.85769534e+00 7.45645515e-03 
185 321.82 1.85360271e+00 1.10934730e-02 
186 322.63 1.85215926e+00 7.57114221e-02 
187 323.43 1.88963902e+00 1.06252269e-02 
188 324.24 1.91320789e+00 4.80570133e-02 
189 325.05 1.90596444e+00 8.69222254e-02 
190 325.86 1.93349350e+00 7.33151150e-02 
191 326.67 1.99183297e+00 4.60435763e-02 
192 327.48 2.00944871e+00 9.23202290e-02 
193 328.28 2.04935921e+00 6.37167627e-02 
194 329.09 2.08678854e+00 6.41827320e-02 
195 329.90 2.15258408e+00 2.75158230e-02 
196 330.71 2.21628571e+00 5.48617069e-02 
197 331.52 2.26237463e+00 8.01616199e-02 
198 332.32 2.40915811e+00 9.32788961e-02 
199 333.13 2.66398466e+00 1.05077319e-01 
200 333.94 3.12618911e+00 1.28809704e-01 
201 334.75 3.85504032e+00 2.30020301e-01 
202 335.55 4.87236881e+00 2.65325535e-01 
203 336.36 6.25872564e+00 3.65032845e-01 
204 337.17 8.60870790e+00 5.40707649e-01 
205 337.98 1.17801090e+01 6.83783076e-01 
206 338.79 1.56089039e+01 8.96482988e-01 
207 339.60 1.99657602e+01 9.48975767e-01 
208 340.40 2.36751661e+01 1.14650895e+00 
209 341.21 2.70967312e+01 1.11637227e+00 
210 342.02 3.12360125e+01 1.23261256e+00 
211 342.83 3.44087849e+01 1.31631145e+00 
212 343.63 3.52271518e+01 1.39603038e+00 
213 344.44 3.71321049e+01 1.35300689e+00 
214 345.25 4.14831467e+01 1.41448332e+00 
215 346.06 4.54841176e+01 1.15919883e+00 
216 346.87 4.81189327e+01 9.55000387e-01 
217 347.67 5.00545635e+01 8.83918549e-01 
218 348.48 5.19146995e+01 1.00992745e+00 
219 349.29 5.53507633e+01 1.19831647e+00 
220 350.10 6.09059276e+01 1.33172977e+00 
221 350.90 6.40915375e+01 1.37200466e+00 
222 351.71 6.41834526e+01 1.26842992e+00 
223 352.52 6.61007156e+01 1.31057950e+00 
224 353.33 7.27454223e+01 1.26589982e+00 
225 354.14 7.97583389e+01 1.27946234e+00 
226 354.94 8.25302735e+01 1.11508286e+00 
227 355.75 8.05757064e+01 1.18100727e+00 
228 356.56 7.58668023e+01 1.10337076e+00 
229 357.37 7.17714996e+01 9.80342458e-01 
230 358.18 7.20250206e+01 9.70086864e-01 
231 358.98 8.23841019e+01 8.13017447e-01 
232 359.79 9.35985031e+01 1.07424426e+00 
233 360.60 9.40220032e+01 1.01842970e+00 
234 361.41 9.34213486e+01 9.44057061e-01 
235 362.21 9.92172432e+01 8.24653950e-01 
236 363.02 1.04626827e+02 1.05298311e+00 
237 363.83 1.07984825e+02 1.21373182e+00 
238 364.64 1.14120533e+02 1.08911839e+00 
239 365.44 1.24947552e+02 8.02977733e-01 
240 366.25 1.32628144e+02 1.04721595e+00 
241 367.06 1.32741272e+02 1.04279300e+00 
242 367.87 1.30936127e+02 8.95902878e-01 
243 368.67 1.33773880e+02 9.54770931e-01 
244 369.48 1.39444076e+02 8.95708423e-01 
245 370.29 1.39868057e+02 9.43658041e-01 
246 371.10 1.38148232e+02 9.33504695e-01 
247 371.90 1.34247490e+02 7.22697779e-01 
248 372.71 1.26447010e+02 7.01339618e-01 
249 373.52 1.20123734e+02 4.44963206e-01 
250 374.33 1.20969605e+02 3.85727456e-01 
251 375.13 1.30195633e+02 6.28709852e-01 
252 375.94 1.41741897e+02 3.86396379e-01 
253 376.75 1.54224266e+02 4.81420924e-01 
254 377.56 1.68072212e+02 4.34874913e-01 
255 378.36 1.69419609e+02 4.26890263e-01 
256 379.17 1.60010673e+02 5.35519543e-01 
257 379.98 1.58505340e+02 6.90539269e-02 
258 380.78 1.56863648e+02 5.01759436e-01 
259 381.59 1.41122413e+02 1.47504596e-01 
260 382.40 1.20038135e+02 3.22452713e-01 
261 383.20 1.12982982e+02 1.11429422e-01 
262 384.01 1.24714824e+02 2.04910353e-01 
263 384.82 1.39838608e+02 1.06751911e-01 
264 385.63 1.44633064e+02 3.12305024e-01 
265 386.43 1.45635162e+02 2.44147001e-01 
266 387.24 1.46289299e+02 3.18886774e-01 
267 388.05 1.48931504e+02 2.24509939e-01 
268 388.85 1.58884873e+02 1.59426416e-01 
269 389.66 1.73189125e+02 7.63795532e-02 
270 390.47 1.83532165e+02 7.16369880e-03 
271 391.27 1.81904397e+02 1.88116567e-01 
272 392.08 1.58867585e+02 2.02002730e-01 
273 392.89 1.28763077e+02 1.34201089e-01 
274 393.69 1.27117321e+02 4.00349717e-02 
275 394.50 1.53614578e+02 1.28396449e-02 
276 395.31 1.66733154e+02 2.02218397e-01 
277 396.11 1.52066048e+02 8.67591736e-02 
278 396.92 1.47598457e+02 7.85376431e-02 
279 397.73 1.78790832e+02 2.01985052e-02 
280 398.53 2.17622055e+02 9.31146494e-02 
281 399.34 2.39901482e+02 1.82570728e-01 
282 400.15 2.50946274e+02 1.54420807e-01 
283 400.95 2.59284332e+02 1.30251898e-01 
284 401.76 2.65789993e+02 7.58075038e-02 
285 402.57 2.66988723e+02 8.75037571e-02 
286 403.37 2.65326034e+02 1.16290074e-01 
287 404.18 2.64424866e+02 9.45168421e-02 
288 404.99 2.63541702e+02 6.09610898e-02 
289 405.79 2.62281205e+02 2.47621017e-01 
290 406.60 2.63782333e+02 2.42183365e-01 
291 407.40 2.71305847e+02 1.33013857e-01 
292 408.21 2.81315903e+02 1.42098765e-01 
293 409.02 2.83560150e+02 1.12643524e-01 
294 409.82 2.79647263e+02 1.50212815e-01 
295 410.63 2.84551880e+02 2.65467685e-01 
296 411.43 2.96914368e+02 7.32831326e-02 
297 412.24 3.02672104e+02 4.88766349e-02 
298 413.05 3.01990081e+02 1.17606707e-01 
299 413.85 3.01145722e+02 2.11691507e-01 
300 414.66 3.00419387e+02 3.23041733e-02 
301 415.46 3.00882492e+02 2.28760357e-01 
302 416.27 2.99552689e+02 1.45551567e-01 
303 417.08 2.93999557e+02 4.41298271e-02 
304 417.88 2.88266418e+02 2.40819356e-02 
305 418.69 2.85937470e+02 3.90453758e-01 
306 419.49 2.86108124e+02 3.30032191e-01 
307 420.30 2.89429139e+02 2.37025729e-01 
308 421.11 2.91636139e+02 1.76906096e-01 
309 421.91 2.88039597e+02 3.40973254e-01 
310 422.72 2.83539032e+02 3.71334298e-01 
311 423.52 2.84732483e+02 5.56354444e-01 
312 424.33 2.88662507e+02 7.02229866e-01 
313 425.13 2.91354584e+02 9.50261004e-01 
314 425.94 2.92390457e+02 8.51104835e-01 
315 426.74 2.93088623e+02 8.17333415e-01 
316 427.55 2.94058319e+02 8.27604848e-01 
317 428.36 2.91446198e+02 9.77062473e-01 
318 429.16 2.80200623e+02 7.55530161e-01 
319 429.96 2.70838440e+02 7.59586832e-01 
320 430.77 2.86203186e+02 1.52180693e+00 
321 431.58 3.20740707e+02 1.98565201e+00 
322 432.38 3.51803406e+02 2.10323679e+00 
323 433.19 3.66586380e+02 2.17887176e+00 
324 433.99 3.77011429e+02 2.14257597e+00 
325 434.80 3.96048752e+02 2.24796882e+00 
326 435.60 4.19921708e+02 2.51386714e+00 
327 436.41 4.34832840e+02 2.61736141e+00 
328 437.21 4.34969513e+02 2.48001016e+00 
329 438.02 4.31476487e+02 2.22617367e+00 
330 438.82 4.37770905e+02 2.16667983e+00 
331 439.63 4.53961747e+02 2.30713881e+00 
332 440.43 4.75260422e+02 2.35767715e+00 
333 441.24 4.97015229e+02 2.19766737e+00 
334 442.04 5.15747864e+02 2.05787731e+00 
335 442.85 5.28481812e+02 1.95990837e+00 
336 443.65 5.36445160e+02 1.90099718e+00 
337 444.45 5.39536530e+02 1.59854287e+00 
338 445.26 5.40129120e+02 1.53527307e+00 
339 446.06 5.46768799e+02 1.46600348e+00 
340 446.87 5.61687287e+02 1.56945391e+00 
341 447.67 5.78335388e+02 1.72262313e+00 
342 448.48 5.91252136e+02 1.85900353e+00 
343 449.28 6.04199951e+02 1.86383731e+00 
344 450.09 6.18057007e+02 1.91951207e+00 
345 450.89 6.24484131e+02 1.84217156e+00 
346 451.70 6.17311401e+02 1.62707038e+00 
347 452.50 6.05868103e+02 1.49267555e+00 
348 453.30 6.02436798e+02 1.40726553e+00 
349 454.11 6.07660492e+02 1.49220037e+00 
350 454.91 6.17971497e+02 1.31935165e+00 
351 455.72 6.29031983e+02 1.47170064e+00 
352 456.52 6.37638550e+02 1.55465063e+00 
353 457.32 6.40579041e+02 1.50303395e+00 
354 458.13 6.39027161e+02 1.43674269e+00 
355 458.93 6.38795288e+02 1.42155050e+00 
356 459.74 6.43800690e+02 1.30765540e+00 
357 460.54 6.52884796e+02 1.25413873e+00 
358 461.34 6.62065735e+02 1.07956396e+00 
359 462.15 6.67608978e+02 9.40895375e-01 
360 462.95 6.66989441e+02 8.89666196e-01 
361 463.76 6.62312195e+02 6.29076134e-01 
362 464.56 6.58381897e+02 5.52513440e-01 
363 465.36 6.55819031e+02 5.87298851e-01 
364 466.17 6.54771088e+02 7.59457432e-01 
365 466.97 6.56242920e+02 8.77322940e-01 
366 467.77 6.59946167e+02 7.53027710e-01 
367 468.58 6.63150756e+02 6.02836108e-01 
368 469.38 6.62956604e+02 5.53462377e-01 
369 470.18 6.64071167e+02 3.38103107e-01 
370 470.99 6.71925934e+02 2.30163257e-01 
371 471.79 6.82169464e+02 1.52737893e-01 
372 472.59 6.90595337e+02 1.34309276e-01 
373 473.40 6.97028382e+02 1.29043452e-01 
374 474.20 7.01377991e+02 1.15146682e-01 
375 475.00 7.03716613e+02 2.11474425e-02 
376 475.81 7.05990845e+02 4.66110648e-02 
377 476.61 7.11055542e+02 2.83125555e-02 
378 477.41 7.18692657e+02 6.37449692e-02 
379 478.21 7.25688233e+02 7.68222020e-02 
380 479.02 7.30442902e+02 1.70173025e-01 
381 479.82 7.33658234e+02 4.34647932e-01 
382 480.62 7.37434449e+02 5.95240367e-01 
383 481.43 7.39072754e+02 5.46730721e-01 
384 482.23 7.37377868e+02 6.22084969e-01 
385 483.03 7.31485871e+02 5.99081371e-01 
386 483.84 7.18682556e+02 7.15565900e-01 
387 484.64 6.93664184e+02 7.93596547e-01 
388 485.44 6.65276947e+02 9.29760564e-01 
389 486.24 6.52308899e+02 9.94368911e-01 
390 487.04 6.59468109e+02 1.10886788e+00 
391 487.85 6.79870727e+02 1.25366426e+00 
392 488.65 7.01633850e+02 1.15017070e+00 
393 489.45 7.15723633e+02 1.14076194e+00 
394 490.26 7.19169281e+02 1.13553995e+00 
395 491.06 7.15529297e+02 1.14835838e+00 
396 491.86 7.11152893e+02 1.22025983e+00 
397 492.66 7.12300415e+02 1.12160005e+00 
398 493.46 7.20424591e+02 1.27839391e+00 
399 494.27 7.28450195e+02 1.42180930e+00 
400 495.07 7.32276672e+02 1.39945342e+00 
401 495.87 7.33479187e+02 1.36665356e+00 
402 496.67 7.29471955e+02 1.25267148e+00 
403 497.48 7.23507690e+02 1.40221608e+00 
404 498.28 7.18180817e+02 1.34951895e+00 
405 499.08 7.11619324e+02 1.43242651e+00 
406 499.88 7.03880524e+02 1.35133197e+00 
407 500.68 6.97480072e+02 1.19112844e+00 
408 501.48 6.95331666e+02 1.14784007e+00 
409 502.29 6.98144714e+02 1.19626416e+00 
410 503.09 7.02492096e+02 1.20303966e+00 
411 503.89 7.08684509e+02 1.32116397e+00 
412 504.69 7.16637146e+02 1.53652465e+00 
413 505.49 7.22669373e+02 1.75904903e+00 
414 506.29 7.23330994e+02 1.94963623e+00 
415 507.09 7.19658478e+02 2.07975873e+00 
416 507.90 7.16233490e+02 1.92835939e+00 
417 508.70 7.15286652e+02 1.87803672e+00 
418 509.50 7.16369964e+02 1.94683114e+00 
419 510.30 7.17986877e+02 1.98847831e+00 
420 511.10 7.16575623e+02 2.05295797e+00 
421 511.90 7.11085632e+02 1.77588100e+00 
422 512.71 7.02935242e+02 1.56518157e+00 
423 513.51 6.94608551e+02 1.44740233e+00 
424 514.31 6.88169343e+02 1.32327892e+00 
425 515.11 6.76784332e+02 1.37420546e+00 
426 515.91 6.58144928e+02 1.43687209e+00 
427 516.71 6.41272614e+02 1.61796426e+00 
428 517.51 6.33297608e+02 1.68818279e+00 
429 518.31 6.39774964e+02 1.73539773e+00 
430 519.11 6.55940460e+02 1.61917271e+00 
431 519.91 6.71524230e+02 1.60937574e+00 
432 520.71 6.82623352e+02 1.43553425e+00 
433 521.52 6.86575745e+02 1.31693476e+00 
434 522.32 6.89281189e+02 1.46626228e+00 
435 523.12 6.94630524e+02 1.37644982e+00 
436 523.92 6.99535400e+02 1.33359420e+00 
437 524.72 6.98156829e+02 1.48512294e+00 
438 525.52 6.86550140e+02 1.38801596e+00 
439 526.32 6.74539917e+02 1.26678463e+00 
440 527.12 6.74211335e+02 1.13182835e+00 
441 527.92 6.84947388e+02 1.00438154e+00 
442 528.72 7.00134827e+02 1.01888289e+00 
443 529.52 7.12427978e+02 1.14559572e+00 
444 530.32 7.17314576e+02 1.16044213e+00 
445 531.12 7.13613006e+02 1.16359300e+00 
446 531.92 7.06289704e+02 1.04041924e+00 
447 532.72 7.00567078e+02 8.95018287e-01 
448 533.52 7.00742920e+02 8.72316624e-01 
449 534.32 7.06886871e+02 9.71020245e-01 
450 535.12 7.11834503e+02 1.04887836e+00 
451 535.92 7.11535675e+02 1.05250299e+00 
452 536.72 7.09358215e+02 9.92124554e-01 
453 537.52 7.06222442e+02 8.81509719e-01 
454 538.32 7.01545166e+02 8.62649060e-01 
455 539.12 6.95630921e+02 1.09371954e+00 
456 539.92 6.90577880e+02 9.95404822e-01 
457 540.72 6.89569214e+02 1.00628083e+00 
458 541.52 6.92118469e+02 8.52723402e-01 
459 542.32 6.97465149e+02 7.98860957e-01 
460 543.12 7.02720032e+02 9.18151285e-01 
461 543.92 7.06568542e+02 1.16018333e+00 
462 544.72 7.08910217e+02 1.03070854e+00 
