% C0 (TOA Count Rate, /ms) for 4STAR VIS spectrometer (1044 channels) derived from C:\_star\IOP\MLO\MLO_2018_Aug\starsun\4STARB_20180811starsun.mat and recorded on 2018-08-13 17:21:15.
% Data outside 1.8x the STD of 501 nm Langley residuals were screened out. For instrument:4STARB
Pix Wavelength C0 C0err
0 171.70 -1.00000000e+00 -1.00000000e+00 
1 172.51 -1.00000000e+00 -1.00000000e+00 
2 173.33 -1.00000000e+00 -1.00000000e+00 
3 174.14 -1.00000000e+00 -1.00000000e+00 
4 174.95 -1.00000000e+00 -1.00000000e+00 
5 175.76 -1.00000000e+00 -1.00000000e+00 
6 176.58 -1.00000000e+00 -1.00000000e+00 
7 177.39 -1.00000000e+00 -1.00000000e+00 
8 178.20 -1.00000000e+00 -1.00000000e+00 
9 179.01 -1.00000000e+00 -1.00000000e+00 
10 179.83 -1.00000000e+00 -1.00000000e+00 
11 180.64 -1.00000000e+00 -1.00000000e+00 
12 181.45 -1.00000000e+00 -1.00000000e+00 
13 182.26 -1.00000000e+00 -1.00000000e+00 
14 183.08 -1.00000000e+00 -1.00000000e+00 
15 183.89 -1.00000000e+00 -1.00000000e+00 
16 184.70 -1.00000000e+00 -1.00000000e+00 
17 185.51 -1.00000000e+00 -1.00000000e+00 
18 186.33 -1.00000000e+00 -1.00000000e+00 
19 187.14 -1.00000000e+00 -1.00000000e+00 
20 187.95 -1.00000000e+00 -1.00000000e+00 
21 188.76 -1.00000000e+00 -1.00000000e+00 
22 189.57 -1.00000000e+00 -1.00000000e+00 
23 190.39 -1.00000000e+00 -1.00000000e+00 
24 191.20 -1.00000000e+00 -1.00000000e+00 
25 192.01 -1.00000000e+00 -1.00000000e+00 
26 192.82 -1.00000000e+00 -1.00000000e+00 
27 193.64 -1.00000000e+00 -1.00000000e+00 
28 194.45 -1.00000000e+00 -1.00000000e+00 
29 195.26 -1.00000000e+00 -1.00000000e+00 
30 196.07 -1.00000000e+00 -1.00000000e+00 
31 196.89 -1.00000000e+00 -1.00000000e+00 
32 197.70 -1.00000000e+00 -1.00000000e+00 
33 198.51 -1.00000000e+00 -1.00000000e+00 
34 199.32 -1.00000000e+00 -1.00000000e+00 
35 200.14 -1.00000000e+00 -1.00000000e+00 
36 200.95 -1.00000000e+00 -1.00000000e+00 
37 201.76 -1.00000000e+00 -1.00000000e+00 
38 202.57 -1.00000000e+00 -1.00000000e+00 
39 203.39 -1.00000000e+00 -1.00000000e+00 
40 204.20 -1.00000000e+00 -1.00000000e+00 
41 205.01 -1.00000000e+00 -1.00000000e+00 
42 205.82 -1.00000000e+00 -1.00000000e+00 
43 206.64 -1.00000000e+00 -1.00000000e+00 
44 207.45 -1.00000000e+00 -1.00000000e+00 
45 208.26 -1.00000000e+00 -1.00000000e+00 
46 209.07 -1.00000000e+00 -1.00000000e+00 
47 209.88 -1.00000000e+00 -1.00000000e+00 
48 210.70 -1.00000000e+00 -1.00000000e+00 
49 211.51 -1.00000000e+00 -1.00000000e+00 
50 212.32 -1.00000000e+00 -1.00000000e+00 
51 213.13 -1.00000000e+00 -1.00000000e+00 
52 213.95 -1.00000000e+00 -1.00000000e+00 
53 214.76 3.34224296e+00 1.00267291e-01 
54 215.57 3.40556359e+00 1.02166906e-01 
55 216.38 3.11600256e+00 9.34800804e-02 
56 217.19 2.66529870e+00 7.99589604e-02 
57 218.01 2.84491229e+00 8.53473693e-02 
58 218.82 2.84588909e+00 8.53766724e-02 
59 219.63 3.02952576e+00 9.08857733e-02 
60 220.44 3.03001118e+00 9.09003317e-02 
61 221.26 2.94405603e+00 8.83216783e-02 
62 222.07 2.95215321e+00 8.85645971e-02 
63 222.88 3.07167459e+00 9.21502411e-02 
64 223.69 3.06215143e+00 9.18645412e-02 
65 224.50 3.12731504e+00 9.38194543e-02 
66 225.32 3.26973081e+00 9.80919227e-02 
67 226.13 3.32015753e+00 9.96047258e-02 
68 226.94 3.38478947e+00 1.01543687e-01 
69 227.75 3.46628690e+00 1.03988610e-01 
70 228.56 3.51358747e+00 1.05407625e-01 
71 229.38 3.56913614e+00 1.07074082e-01 
72 230.19 3.57379556e+00 1.07213870e-01 
73 231.00 3.47871208e+00 1.04361363e-01 
74 231.81 3.36888075e+00 1.01066425e-01 
75 232.63 3.35215139e+00 1.00564539e-01 
76 233.44 3.21062541e+00 9.63187590e-02 
77 234.25 3.06645298e+00 9.19935927e-02 
78 235.06 3.08550882e+00 9.25652683e-02 
79 235.87 3.02366066e+00 9.07098204e-02 
80 236.69 2.97315145e+00 8.91945437e-02 
81 237.50 2.88103962e+00 8.64311904e-02 
82 238.31 2.94156384e+00 8.82469118e-02 
83 239.12 2.82786012e+00 8.48358050e-02 
84 239.93 2.79517031e+00 8.38551074e-02 
85 240.74 3.01074672e+00 9.03224051e-02 
86 241.56 2.81634092e+00 8.44902247e-02 
87 242.37 2.42709684e+00 7.28129074e-02 
88 243.18 2.61993647e+00 7.85980970e-02 
89 243.99 2.80984730e-01 8.42954218e-03 
90 244.80 -1.00000000e+00 -1.00000000e+00 
91 245.62 -1.00000000e+00 -1.00000000e+00 
92 246.43 -1.00000000e+00 -1.00000000e+00 
93 247.24 -1.00000000e+00 -1.00000000e+00 
94 248.05 -1.00000000e+00 -1.00000000e+00 
95 248.86 -1.00000000e+00 -1.00000000e+00 
96 249.68 -1.00000000e+00 -1.00000000e+00 
97 250.49 -1.00000000e+00 -1.00000000e+00 
98 251.30 -1.00000000e+00 -1.00000000e+00 
99 252.11 -1.00000000e+00 -1.00000000e+00 
100 252.92 -1.00000000e+00 -1.00000000e+00 
101 253.73 -1.00000000e+00 -1.00000000e+00 
102 254.55 -1.00000000e+00 -1.00000000e+00 
103 255.36 -1.00000000e+00 -1.00000000e+00 
104 256.17 -1.00000000e+00 -1.00000000e+00 
105 256.98 -1.00000000e+00 -1.00000000e+00 
106 257.79 -1.00000000e+00 -1.00000000e+00 
107 258.60 -1.00000000e+00 -1.00000000e+00 
108 259.42 -1.00000000e+00 -1.00000000e+00 
109 260.23 -1.00000000e+00 -1.00000000e+00 
110 261.04 -1.00000000e+00 -1.00000000e+00 
111 261.85 -1.00000000e+00 -1.00000000e+00 
112 262.66 -1.00000000e+00 -1.00000000e+00 
113 263.47 -1.00000000e+00 -1.00000000e+00 
114 264.29 -1.00000000e+00 -1.00000000e+00 
115 265.10 3.10999346e+00 9.32998061e-02 
116 265.91 2.93777347e+00 8.81332010e-02 
117 266.72 2.74085593e+00 8.22256804e-02 
118 267.53 2.41081953e+00 7.23245889e-02 
119 268.34 3.01520634e+00 9.04561877e-02 
120 269.15 2.82632875e+00 8.47898647e-02 
121 269.97 2.82587576e+00 8.47762749e-02 
122 270.78 3.04323983e+00 9.12971944e-02 
123 271.59 3.02336073e+00 9.07008201e-02 
124 272.40 3.09142327e+00 9.27426964e-02 
125 273.21 3.12903357e+00 9.38710049e-02 
126 274.02 3.19440174e+00 9.58320498e-02 
127 274.83 3.40065646e+00 1.02019697e-01 
128 275.65 3.52001333e+00 1.05600402e-01 
129 276.46 3.67590642e+00 1.10277191e-01 
130 277.27 3.88448668e+00 1.16534598e-01 
131 278.08 4.03711653e+00 1.21113494e-01 
132 278.89 3.97939658e+00 1.19381897e-01 
133 279.70 3.70805955e+00 1.11241788e-01 
134 280.51 3.43308568e+00 1.02992572e-01 
135 281.33 3.22938204e+00 9.68814641e-02 
136 282.14 2.99571586e+00 8.98714736e-02 
137 282.95 2.83405876e+00 8.50217640e-02 
138 283.76 2.67878413e+00 8.03635269e-02 
139 284.57 2.55322909e+00 7.65968710e-02 
140 285.38 2.43740988e+00 7.31222928e-02 
141 286.19 2.35261583e+00 7.05784783e-02 
142 287.00 2.27636170e+00 6.82908520e-02 
143 287.81 2.18014264e+00 6.54042810e-02 
144 288.63 2.11835718e+00 6.35507181e-02 
145 289.44 2.08342385e+00 6.25027120e-02 
146 290.25 2.03786874e+00 6.11360632e-02 
147 291.06 1.99300182e+00 5.97900562e-02 
148 291.87 1.96910083e+00 5.90730235e-02 
149 292.68 1.94425678e+00 5.83277047e-02 
150 293.49 1.94265175e+00 5.82795516e-02 
151 294.30 1.93767822e+00 5.81303462e-02 
152 295.11 1.95260370e+00 5.85781112e-02 
153 295.93 1.98765481e+00 5.96296452e-02 
154 296.74 2.05131507e+00 6.15394525e-02 
155 297.55 2.15837216e+00 6.47511631e-02 
156 298.36 2.34072018e+00 7.02216029e-02 
157 299.17 2.60485864e+00 7.81457573e-02 
158 299.98 3.01087880e+00 9.03263614e-02 
159 300.79 3.66389847e+00 1.09916955e-01 
160 301.60 4.80054712e+00 1.44016415e-01 
161 302.41 6.87426281e+00 2.06227884e-01 
162 303.22 1.01932831e+01 3.05798501e-01 
163 304.03 1.43150873e+01 4.29452628e-01 
164 304.84 1.90461750e+01 5.71385264e-01 
165 305.66 2.39936390e+01 7.19809175e-01 
166 306.47 2.97591457e+01 8.92774343e-01 
167 307.28 3.77967682e+01 1.13390303e+00 
168 308.09 4.46609802e+01 1.33982944e+00 
169 308.90 4.71593742e+01 1.41478121e+00 
170 309.71 5.12973328e+01 1.53891993e+00 
171 310.52 6.31709747e+01 1.89512920e+00 
172 311.33 7.47000580e+01 2.24100184e+00 
173 312.14 7.90719299e+01 2.37215781e+00 
174 312.95 8.22826309e+01 2.46847892e+00 
175 313.76 8.60312347e+01 2.58093715e+00 
176 314.57 8.75388031e+01 2.62616420e+00 
177 315.38 8.64977798e+01 2.59493351e+00 
178 316.19 8.89918213e+01 2.66975474e+00 
179 317.00 9.84054413e+01 2.95216322e+00 
180 317.81 1.03275543e+02 3.09826636e+00 
181 318.62 1.02698090e+02 3.08094263e+00 
182 319.43 1.07753403e+02 3.23260212e+00 
183 320.25 1.15127625e+02 3.45382881e+00 
184 321.06 1.15842514e+02 3.47527552e+00 
185 321.87 1.12576317e+02 3.37728953e+00 
186 322.68 1.10381104e+02 3.31143308e+00 
187 323.49 1.12630814e+02 3.37892437e+00 
188 324.30 1.22874840e+02 3.68624520e+00 
189 325.11 1.37933426e+02 4.13800287e+00 
190 325.92 1.54692535e+02 4.64077616e+00 
191 326.73 1.64786774e+02 4.94360304e+00 
192 327.54 1.65734848e+02 4.97204542e+00 
193 328.35 1.66495499e+02 4.99486494e+00 
194 329.16 1.76188110e+02 5.28564310e+00 
195 329.97 1.85397339e+02 5.56192017e+00 
196 330.78 1.82673996e+02 5.48021984e+00 
197 331.59 1.78724731e+02 5.36174202e+00 
198 332.40 1.78106400e+02 5.34319210e+00 
199 333.21 1.77023911e+02 5.31071711e+00 
200 334.02 1.79029068e+02 5.37087202e+00 
201 334.83 1.83220352e+02 5.49661064e+00 
202 335.64 1.78876831e+02 5.36630487e+00 
203 336.45 1.68574219e+02 5.05722666e+00 
204 337.26 1.68489273e+02 5.05467796e+00 
205 338.07 1.78746033e+02 5.36238098e+00 
206 338.88 1.89723969e+02 5.69171906e+00 
207 339.69 1.99879501e+02 5.99638510e+00 
208 340.50 2.04324677e+02 6.12974024e+00 
209 341.31 2.01446793e+02 6.04340363e+00 
210 342.12 2.04108398e+02 6.12325191e+00 
211 342.93 2.07519165e+02 6.22557497e+00 
212 343.74 1.96848694e+02 5.90546083e+00 
213 344.55 1.86818542e+02 5.60455608e+00 
214 345.36 1.94296310e+02 5.82888937e+00 
215 346.17 2.02024261e+02 6.06072807e+00 
216 346.98 2.03641663e+02 6.10925007e+00 
217 347.79 2.02416412e+02 6.07249260e+00 
218 348.59 2.01780869e+02 6.05342627e+00 
219 349.40 2.05881363e+02 6.17644072e+00 
220 350.21 2.19339386e+02 6.58018160e+00 
221 351.02 2.27375717e+02 6.82127142e+00 
222 351.83 2.21940231e+02 6.65820694e+00 
223 352.64 2.18717865e+02 6.56153584e+00 
224 353.45 2.30369904e+02 6.91109705e+00 
225 354.26 2.46444031e+02 7.39332104e+00 
226 355.07 2.49035217e+02 7.47105646e+00 
227 355.88 2.37232315e+02 7.11696959e+00 
228 356.69 2.15950684e+02 6.47852039e+00 
229 357.50 1.95909485e+02 5.87728453e+00 
230 358.31 1.86023132e+02 5.58069420e+00 
231 359.12 2.01753845e+02 6.05261517e+00 
232 359.93 2.29095139e+02 6.87285423e+00 
233 360.74 2.29150848e+02 6.87452555e+00 
234 361.55 2.20632446e+02 6.61897326e+00 
235 362.35 2.28495529e+02 6.85486603e+00 
236 363.16 2.38906052e+02 7.16718149e+00 
237 363.97 2.43669403e+02 7.31008196e+00 
238 364.78 2.52535263e+02 7.57605791e+00 
239 365.59 2.72419647e+02 8.17258930e+00 
240 366.40 2.89740540e+02 8.69221592e+00 
241 367.21 2.89678650e+02 8.69035912e+00 
242 368.02 2.82723053e+02 8.48169136e+00 
243 368.83 2.84146881e+02 8.52440643e+00 
244 369.64 2.94918732e+02 8.84756184e+00 
245 370.44 2.96076111e+02 8.88228321e+00 
246 371.25 2.91663452e+02 8.74990368e+00 
247 372.06 2.83834076e+02 8.51502228e+00 
248 372.87 2.67494720e+02 8.02484131e+00 
249 373.68 2.52654144e+02 7.57962418e+00 
250 374.49 2.50989746e+02 7.52969217e+00 
251 375.30 2.68509033e+02 8.05527115e+00 
252 376.11 2.92711182e+02 8.78133583e+00 
253 376.92 3.18515747e+02 9.55547237e+00 
254 377.72 3.50470398e+02 1.05141115e+01 
255 378.53 3.59527222e+02 1.07858162e+01 
256 379.34 3.41012848e+02 1.02303858e+01 
257 380.15 3.35750122e+02 1.00725040e+01 
258 380.96 3.37253906e+02 1.01176176e+01 
259 381.77 3.08255310e+02 9.24765968e+00 
260 382.58 2.63686127e+02 7.91058397e+00 
261 383.38 2.43819916e+02 7.31459761e+00 
262 384.19 2.66645569e+02 7.99936724e+00 
263 385.00 3.02401245e+02 9.07203770e+00 
264 385.81 3.16783722e+02 9.50351143e+00 
265 386.62 3.20975922e+02 9.62927723e+00 
266 387.43 3.24808594e+02 9.74425793e+00 
267 388.23 3.30469910e+02 9.91409683e+00 
268 389.04 3.52613525e+02 1.05784054e+01 
269 389.85 3.87561890e+02 1.16268568e+01 
270 390.66 4.15313690e+02 1.24594107e+01 
271 391.47 4.19699249e+02 1.25909777e+01 
272 392.28 3.74560974e+02 1.12368288e+01 
273 393.08 3.03535614e+02 9.10606861e+00 
274 393.89 2.92548462e+02 8.77645397e+00 
275 394.70 3.54683319e+02 1.06404991e+01 
276 395.51 3.95033112e+02 1.18509932e+01 
277 396.32 3.64279358e+02 1.09283810e+01 
278 397.12 3.46959106e+02 1.04087734e+01 
279 397.93 4.16677826e+02 1.25003347e+01 
280 398.74 5.12395203e+02 1.53718557e+01 
281 399.55 5.71169922e+02 1.71350975e+01 
282 400.36 5.99641968e+02 1.79892597e+01 
283 401.16 6.20019165e+02 1.86005745e+01 
284 401.97 6.35202393e+02 1.90560722e+01 
285 402.78 6.36979858e+02 1.91093960e+01 
286 403.59 6.30773376e+02 1.89232006e+01 
287 404.39 6.24975037e+02 1.87492504e+01 
288 405.20 6.19765015e+02 1.85929508e+01 
289 406.01 6.14910889e+02 1.84473267e+01 
290 406.82 6.15519897e+02 1.84655972e+01 
291 407.63 6.29437805e+02 1.88831348e+01 
292 408.43 6.51589600e+02 1.95476875e+01 
293 409.24 6.57292847e+02 1.97187862e+01 
294 410.05 6.46274780e+02 1.93882427e+01 
295 410.86 6.56358887e+02 1.96907673e+01 
296 411.66 6.85474854e+02 2.05642452e+01 
297 412.47 7.01588867e+02 2.10476665e+01 
298 413.28 7.04702332e+02 2.11410694e+01 
299 414.08 7.07571106e+02 2.12271328e+01 
300 414.89 7.11909424e+02 2.13572826e+01 
301 415.70 7.19571411e+02 2.15871429e+01 
302 416.51 7.24833740e+02 2.17450123e+01 
303 417.31 7.19197815e+02 2.15759354e+01 
304 418.12 7.13121704e+02 2.13936520e+01 
305 418.93 7.14216125e+02 2.14264832e+01 
306 419.74 7.21129456e+02 2.16338844e+01 
307 420.54 7.36513306e+02 2.20953999e+01 
308 421.35 7.49247681e+02 2.24774303e+01 
309 422.16 7.44183044e+02 2.23254910e+01 
310 422.96 7.35684937e+02 2.20705490e+01 
311 423.77 7.39674194e+02 2.21902256e+01 
312 424.58 7.47806763e+02 2.24342022e+01 
313 425.38 7.51027527e+02 2.25308266e+01 
314 426.19 7.49022583e+02 2.24706783e+01 
315 427.00 7.42545410e+02 2.22763615e+01 
316 427.80 7.35833679e+02 2.20750103e+01 
317 428.61 7.20076965e+02 2.16023083e+01 
318 429.42 6.81334656e+02 2.04400406e+01 
319 430.23 6.43021667e+02 1.92906494e+01 
320 431.03 6.57640808e+02 1.97292252e+01 
321 431.84 7.20738220e+02 2.16221466e+01 
322 432.65 7.74169312e+02 2.32250786e+01 
323 433.45 7.90607788e+02 2.37182331e+01 
324 434.26 7.96061157e+02 2.38818340e+01 
325 435.06 8.19075378e+02 2.45722618e+01 
326 435.87 8.51998962e+02 2.55599689e+01 
327 436.68 8.68160828e+02 2.60448246e+01 
328 437.48 8.54681641e+02 2.56404495e+01 
329 438.29 8.33774597e+02 2.50132370e+01 
330 439.10 8.33282593e+02 2.49984779e+01 
331 439.90 8.51460022e+02 2.55438004e+01 
332 440.71 8.78303955e+02 2.63491192e+01 
333 441.52 9.08630737e+02 2.72589226e+01 
334 442.32 9.33407532e+02 2.80022259e+01 
335 443.13 9.47492371e+02 2.84247704e+01 
336 443.93 9.54553101e+02 2.86365929e+01 
337 444.74 9.53237183e+02 2.85971146e+01 
338 445.55 9.46062622e+02 2.83818779e+01 
339 446.35 9.50667053e+02 2.85200119e+01 
340 447.16 9.71153198e+02 2.91345959e+01 
341 447.96 9.93088989e+02 2.97926693e+01 
342 448.77 1.00893323e+03 3.02679977e+01 
343 449.58 1.02661023e+03 3.07983074e+01 
344 450.38 1.04654395e+03 3.13963184e+01 
345 451.19 1.05358191e+03 3.16074581e+01 
346 451.99 1.03785754e+03 3.11357269e+01 
347 452.80 1.01469202e+03 3.04407597e+01 
348 453.60 1.00633820e+03 3.01901455e+01 
349 454.41 1.01138403e+03 3.03415203e+01 
350 455.22 1.02343524e+03 3.07030563e+01 
351 456.02 1.03885376e+03 3.11656132e+01 
352 456.83 1.05007251e+03 3.15021744e+01 
353 457.63 1.05190918e+03 3.15572758e+01 
354 458.44 1.04655237e+03 3.13965702e+01 
355 459.24 1.04393274e+03 3.13179817e+01 
356 460.05 1.05070813e+03 3.15212440e+01 
357 460.85 1.06377551e+03 3.19132652e+01 
358 461.66 1.07573413e+03 3.22720222e+01 
359 462.46 1.08159875e+03 3.24479637e+01 
360 463.27 1.07737073e+03 3.23211212e+01 
361 464.08 1.06661279e+03 3.19983845e+01 
362 464.88 1.05846729e+03 3.17540188e+01 
363 465.69 1.05291492e+03 3.15874481e+01 
364 466.49 1.04953186e+03 3.14859562e+01 
365 467.30 1.05085693e+03 3.15257072e+01 
366 468.10 1.05668005e+03 3.17004013e+01 
367 468.91 1.06146143e+03 3.18438435e+01 
368 469.71 1.05975061e+03 3.17925186e+01 
369 470.52 1.06021704e+03 3.18065109e+01 
370 471.32 1.07209583e+03 3.21628761e+01 
371 472.13 1.08644995e+03 3.25934982e+01 
372 472.93 1.09541235e+03 3.28623695e+01 
373 473.73 1.10275574e+03 3.30826721e+01 
374 474.54 1.10913940e+03 3.32741814e+01 
375 475.34 1.11223132e+03 3.33669395e+01 
376 476.15 1.11524622e+03 3.34573860e+01 
377 476.95 1.12401196e+03 3.37203598e+01 
378 477.76 1.13601428e+03 3.40804291e+01 
379 478.56 1.14604285e+03 3.43812866e+01 
380 479.37 1.15200879e+03 3.45602646e+01 
381 480.17 1.15648071e+03 3.46944199e+01 
382 480.98 1.16075024e+03 3.48225060e+01 
383 481.78 1.16182178e+03 3.48546524e+01 
384 482.58 1.15747595e+03 3.47242775e+01 
385 483.39 1.14837366e+03 3.44512100e+01 
386 484.19 1.12891272e+03 3.38673820e+01 
387 485.00 1.09061584e+03 3.27184753e+01 
388 485.80 1.04656287e+03 3.13968868e+01 
389 486.61 1.02954187e+03 3.08862553e+01 
390 487.41 1.04541675e+03 3.13625031e+01 
391 488.21 1.07672827e+03 3.23018494e+01 
392 489.02 1.10936047e+03 3.32808151e+01 
393 489.82 1.13308691e+03 3.39926071e+01 
394 490.63 1.13939465e+03 3.41818390e+01 
395 491.43 1.13323291e+03 3.39969864e+01 
396 492.23 1.12837939e+03 3.38513832e+01 
397 493.04 1.13401294e+03 3.40203896e+01 
398 493.84 1.14902612e+03 3.44707832e+01 
399 494.64 1.16351318e+03 3.49053955e+01 
400 495.45 1.17159753e+03 3.51479263e+01 
401 496.25 1.17566602e+03 3.52699814e+01 
402 497.06 1.17229492e+03 3.51688461e+01 
403 497.86 1.16400537e+03 3.49201622e+01 
404 498.66 1.15645422e+03 3.46936264e+01 
405 499.47 1.14827734e+03 3.44483185e+01 
406 500.27 1.13723157e+03 3.41169472e+01 
407 501.07 1.12814331e+03 3.38442993e+01 
408 501.88 1.12890417e+03 3.38671265e+01 
409 502.68 1.13736060e+03 3.41208191e+01 
410 503.48 1.14675623e+03 3.44026871e+01 
411 504.29 1.15838037e+03 3.47514114e+01 
412 505.09 1.17347217e+03 3.52041664e+01 
413 505.89 1.18342102e+03 3.55026321e+01 
414 506.70 1.18359204e+03 3.55077629e+01 
415 507.50 1.17635693e+03 3.52907066e+01 
416 508.30 1.17168018e+03 3.51504059e+01 
417 509.10 1.17134619e+03 3.51403847e+01 
418 509.91 1.17424121e+03 3.52272377e+01 
419 510.71 1.17754211e+03 3.53262634e+01 
420 511.51 1.17639331e+03 3.52917976e+01 
421 512.32 1.16792896e+03 3.50378685e+01 
422 513.12 1.15456934e+03 3.46370811e+01 
423 513.92 1.14253003e+03 3.42759018e+01 
424 514.72 1.13347168e+03 3.40041504e+01 
425 515.53 1.11446899e+03 3.34340706e+01 
426 516.33 1.08169885e+03 3.24509659e+01 
427 517.13 1.05309412e+03 3.15928230e+01 
428 517.93 1.04401733e+03 3.13205204e+01 
429 518.74 1.05900952e+03 3.17702866e+01 
430 519.54 1.08664160e+03 3.25992470e+01 
431 520.34 1.11158289e+03 3.33474884e+01 
432 521.14 1.12784631e+03 3.38353882e+01 
433 521.95 1.13294385e+03 3.39883156e+01 
434 522.75 1.13675610e+03 3.41026840e+01 
435 523.55 1.14660083e+03 3.43980255e+01 
436 524.35 1.15509302e+03 3.46527901e+01 
437 525.15 1.15042847e+03 3.45128555e+01 
438 525.96 1.12907690e+03 3.38723068e+01 
439 526.76 1.11007910e+03 3.33023720e+01 
440 527.56 1.11301172e+03 3.33903503e+01 
441 528.36 1.13380469e+03 3.40141411e+01 
442 529.16 1.15758643e+03 3.47275925e+01 
443 529.97 1.17494751e+03 3.52484245e+01 
444 530.77 1.18110571e+03 3.54331703e+01 
445 531.57 1.17353369e+03 3.52060089e+01 
446 532.37 1.15916833e+03 3.47750511e+01 
447 533.17 1.15039880e+03 3.45119629e+01 
448 533.97 1.15184790e+03 3.45554352e+01 
449 534.78 1.16169214e+03 3.48507652e+01 
450 535.58 1.16822412e+03 3.50467224e+01 
451 536.38 1.16637903e+03 3.49913712e+01 
452 537.18 1.16185168e+03 3.48555489e+01 
453 537.98 1.15753674e+03 3.47261009e+01 
454 538.78 1.14968103e+03 3.44904327e+01 
455 539.58 1.13814185e+03 3.41442566e+01 
456 540.39 1.12977222e+03 3.38931656e+01 
457 541.19 1.12913513e+03 3.38740540e+01 
458 541.99 1.13405286e+03 3.40215874e+01 
459 542.79 1.14150891e+03 3.42452660e+01 
460 543.59 1.14880750e+03 3.44642258e+01 
461 544.39 1.15379492e+03 3.46138458e+01 
462 545.19 1.15703345e+03 3.47110023e+01 
463 545.99 1.15547864e+03 3.46643600e+01 
464 546.79 1.14971716e+03 3.44915161e+01 
465 547.59 1.14311523e+03 3.42934570e+01 
466 548.39 1.14122644e+03 3.42367935e+01 
