% C0 (TOA Count Rate, /ms) for 4STAR VIS spectrometer (1044 channels) derived from (SEE Original files for sources) and recorded on 2018-09-25 11:41:50.
% Langley at MLO and airborne Data outside 2.0x the STD of 501 nm Langley residuals were screened out. 
% Including high Altitude rate spectra, matched to splined stratospheric AOD measured at MLO.
% Averages of c0 from multiple days including: , MLO -au-g , In f-li-gh, In f-li-gh. See the list of files below
% 20180811_VIS_C0_refined_Langley_4STAR_averaged_with_MLO_2018_Aug_11_12.dat
% 20180921_4STAR_VIS_C0_refined_flight_langley_am.dat
% 20180922_VIS_C0_4STAR_refined_flight_langley_am.dat
Pix Wavelength C0 C0err
0 173.18 -1.00000000e+00 0.00000000e+00 
1 173.98 -1.00000000e+00 0.00000000e+00 
2 174.77 -1.00000000e+00 0.00000000e+00 
3 175.56 -1.00000000e+00 0.00000000e+00 
4 176.36 -1.00000000e+00 0.00000000e+00 
5 177.15 -1.00000000e+00 0.00000000e+00 
6 177.94 -1.00000000e+00 0.00000000e+00 
7 178.74 -1.00000000e+00 0.00000000e+00 
8 179.53 -1.00000000e+00 0.00000000e+00 
9 180.33 -1.00000000e+00 0.00000000e+00 
10 181.12 -1.00000000e+00 0.00000000e+00 
11 181.92 -1.00000000e+00 0.00000000e+00 
12 182.71 -1.00000000e+00 0.00000000e+00 
13 183.51 -1.00000000e+00 0.00000000e+00 
14 184.30 -1.00000000e+00 0.00000000e+00 
15 185.10 -1.00000000e+00 0.00000000e+00 
16 185.89 -1.00000000e+00 0.00000000e+00 
17 186.69 -1.00000000e+00 0.00000000e+00 
18 187.49 -1.00000000e+00 0.00000000e+00 
19 188.28 -1.00000000e+00 0.00000000e+00 
20 189.08 -1.00000000e+00 0.00000000e+00 
21 189.88 -1.00000000e+00 0.00000000e+00 
22 190.67 -1.00000000e+00 0.00000000e+00 
23 191.47 -1.00000000e+00 0.00000000e+00 
24 192.27 -1.00000000e+00 0.00000000e+00 
25 193.07 -1.00000000e+00 0.00000000e+00 
26 193.86 -1.00000000e+00 0.00000000e+00 
27 194.66 -1.00000000e+00 0.00000000e+00 
28 195.46 -1.00000000e+00 0.00000000e+00 
29 196.26 -1.00000000e+00 0.00000000e+00 
30 197.05 -1.00000000e+00 0.00000000e+00 
31 197.85 -1.00000000e+00 0.00000000e+00 
32 198.65 -1.00000000e+00 0.00000000e+00 
33 199.45 -1.00000000e+00 0.00000000e+00 
34 200.25 -1.00000000e+00 0.00000000e+00 
35 201.05 -1.00000000e+00 0.00000000e+00 
36 201.85 -1.00000000e+00 0.00000000e+00 
37 202.65 -1.00000000e+00 0.00000000e+00 
38 203.44 -1.00000000e+00 0.00000000e+00 
39 204.24 -1.00000000e+00 0.00000000e+00 
40 205.04 -1.00000000e+00 0.00000000e+00 
41 205.84 -1.00000000e+00 0.00000000e+00 
42 206.64 -1.00000000e+00 0.00000000e+00 
43 207.44 -1.00000000e+00 0.00000000e+00 
44 208.24 -1.00000000e+00 0.00000000e+00 
45 209.04 -1.00000000e+00 0.00000000e+00 
46 209.84 -1.00000000e+00 0.00000000e+00 
47 210.64 -1.00000000e+00 0.00000000e+00 
48 211.44 -1.00000000e+00 0.00000000e+00 
49 212.24 -1.00000000e+00 0.00000000e+00 
50 213.04 -1.00000000e+00 0.00000000e+00 
51 213.85 -1.00000000e+00 0.00000000e+00 
52 214.65 -1.00000000e+00 0.00000000e+00 
53 215.45 -3.42923085e-01 1.13809060e+00 
54 216.25 2.69087736e+00 4.14919320e+00 
55 217.05 1.83734298e+00 2.96232295e+00 
56 217.85 1.60799432e+00 2.41073760e+00 
57 218.65 1.66906309e+00 2.54637692e+00 
58 219.46 1.60921192e+00 2.43177510e+00 
59 220.26 1.65327493e+00 2.49209981e+00 
60 221.06 3.53721563e+00 1.44269637e+00 
61 221.86 4.02029014e+00 1.98065585e+00 
62 222.66 3.78633753e+00 1.62320516e+00 
63 223.47 2.25781136e+00 1.86832325e+00 
64 224.27 2.25427717e+00 1.87789866e+00 
65 225.07 2.35822133e+00 1.90117505e+00 
66 225.87 2.39167098e+00 1.92020176e+00 
67 226.68 2.56128597e+00 1.61796765e+00 
68 227.48 2.90943710e+00 1.28680130e+00 
69 228.28 6.10216913e+00 4.62351459e+00 
70 229.08 5.35103075e+00 3.12990714e+00 
71 229.89 6.37074542e+00 4.73501459e+00 
72 230.69 6.08645899e+00 4.20268553e+00 
73 231.49 5.65316097e+00 3.66590383e+00 
74 232.30 5.51276740e+00 3.77811251e+00 
75 233.10 2.77416722e+00 1.25450110e+00 
76 233.90 2.51322103e+00 1.48575590e+00 
77 234.71 2.29039548e+00 1.77299962e+00 
78 235.51 2.13958572e+00 1.72731223e+00 
79 236.32 2.14848250e+00 1.70558324e+00 
80 237.12 3.40246105e+00 1.38061954e+00 
81 237.92 3.76489242e+00 2.00310998e+00 
82 238.73 3.62058989e+00 1.83463894e+00 
83 239.53 1.45818154e+00 2.32981579e+00 
84 240.34 1.41148956e+00 2.21785309e+00 
85 241.14 1.41435862e+00 2.24866344e+00 
86 241.94 1.53873531e+00 2.40397725e+00 
87 242.75 1.87086757e+00 2.80147140e+00 
88 243.55 -4.34313098e-01 9.79798455e-01 
89 244.36 -1.00000000e+00 0.00000000e+00 
90 245.16 -1.00000000e+00 0.00000000e+00 
91 245.97 -1.00000000e+00 0.00000000e+00 
92 246.77 -1.00000000e+00 0.00000000e+00 
93 247.58 -1.00000000e+00 0.00000000e+00 
94 248.38 -1.00000000e+00 0.00000000e+00 
95 249.19 -1.00000000e+00 0.00000000e+00 
96 249.99 -1.00000000e+00 0.00000000e+00 
97 250.80 -1.00000000e+00 0.00000000e+00 
98 251.60 -1.00000000e+00 0.00000000e+00 
99 252.41 -1.00000000e+00 0.00000000e+00 
100 253.21 -1.00000000e+00 0.00000000e+00 
101 254.02 -1.00000000e+00 0.00000000e+00 
102 254.82 -1.00000000e+00 0.00000000e+00 
103 255.63 -1.00000000e+00 0.00000000e+00 
104 256.44 -1.00000000e+00 0.00000000e+00 
105 257.24 -1.00000000e+00 0.00000000e+00 
106 258.05 -1.00000000e+00 0.00000000e+00 
107 258.85 -1.00000000e+00 0.00000000e+00 
108 259.66 -1.00000000e+00 0.00000000e+00 
109 260.46 -1.00000000e+00 0.00000000e+00 
110 261.27 -1.00000000e+00 0.00000000e+00 
111 262.08 -1.00000000e+00 0.00000000e+00 
112 262.88 -1.00000000e+00 0.00000000e+00 
113 263.69 -1.00000000e+00 0.00000000e+00 
114 264.49 -1.00000000e+00 0.00000000e+00 
115 265.30 -7.02173382e-01 5.15850834e-01 
116 266.11 2.49821397e+00 4.12058580e+00 
117 266.91 1.11104659e+00 1.97738673e+00 
118 267.72 1.17575582e+00 2.01567500e+00 
119 268.53 1.25970896e+00 2.13023204e+00 
120 269.33 1.28734191e+00 2.16020247e+00 
121 270.14 6.65672206e+00 7.33100792e+00 
122 270.95 3.49056744e+00 1.96493675e+00 
123 271.75 3.09376518e+00 1.29786549e+00 
124 272.56 1.96101566e+00 1.41789316e+00 
125 273.37 2.01522489e+00 1.46485925e+00 
126 274.17 2.12110965e+00 1.42763455e+00 
127 274.98 2.40307212e+00 1.26093312e+00 
128 275.79 2.49284451e+02 4.26202776e+02 
129 276.59 5.27566297e+00 3.28660385e+00 
130 277.40 6.09339354e+00 4.32462343e+00 
131 278.21 6.50870602e+00 4.52307943e+00 
132 279.01 6.75519514e+00 4.30698557e+00 
133 279.82 6.59119217e+00 4.33330128e+00 
134 280.63 5.75776370e+00 3.35013025e+00 
135 281.43 5.22874720e+00 2.85303122e+00 
136 282.24 4.73034489e+00 2.36160602e+00 
137 283.05 4.31207037e+00 1.98924309e+00 
138 283.86 3.97619780e+00 1.68676355e+00 
139 284.66 3.64326799e+00 1.41619900e+00 
140 285.47 3.40662098e+00 1.18877820e+00 
141 286.28 3.17709287e+00 1.02727531e+00 
142 287.09 3.00222262e+00 8.88352182e-01 
143 287.89 2.81931500e+00 7.91050265e-01 
144 288.70 2.67975266e+00 7.06516506e-01 
145 289.51 2.52480686e+00 5.83197867e-01 
146 290.32 2.43203310e+00 5.28301214e-01 
147 291.12 2.32083980e+00 4.43902849e-01 
148 291.93 2.23752650e+00 3.73679959e-01 
149 292.74 2.17698347e+00 3.86591150e-01 
150 293.55 2.09376017e+00 3.00110054e-01 
151 294.35 2.03030610e+00 2.87696002e-01 
152 295.16 1.99446110e+00 2.70681220e-01 
153 295.97 1.93048777e+00 1.98211323e-01 
154 296.78 1.90088922e+00 2.11738967e-01 
155 297.58 1.86239209e+00 1.76691518e-01 
156 298.39 1.83178214e+00 1.76617862e-01 
157 299.20 1.79949621e+00 1.78662935e-01 
158 300.01 1.77043996e+00 1.41764315e-01 
159 300.81 1.76680024e+00 1.44054762e-01 
160 301.62 1.74253706e+00 1.39099440e-01 
161 302.43 1.72100097e+00 1.01706670e-01 
162 303.24 1.72463550e+00 1.20428340e-01 
163 304.04 1.70499263e+00 9.78849138e-02 
164 304.85 1.67628964e+00 9.32402267e-02 
165 305.66 1.68365924e+00 8.93320363e-02 
166 306.47 1.67592003e+00 8.11402134e-02 
167 307.28 1.67040966e+00 9.06097249e-02 
168 308.08 1.66913370e+00 9.61831321e-02 
169 308.89 1.65989683e+00 8.23530266e-02 
170 309.70 1.68339664e+00 7.93461259e-02 
171 310.51 1.65853967e+00 7.97759646e-02 
172 311.32 1.66117076e+00 8.77443482e-02 
173 312.12 1.66303595e+00 6.83470533e-02 
174 312.93 1.68274855e+00 7.75322106e-02 
175 313.74 1.70562369e+00 6.53692105e-02 
176 314.55 1.69117325e+00 7.93908254e-02 
177 315.36 1.68347464e+00 8.15091636e-02 
178 316.16 1.70704144e+00 6.86156639e-02 
179 316.97 1.72447844e+00 7.19093969e-02 
180 317.78 1.72771513e+00 7.12313966e-02 
181 318.59 1.73605937e+00 6.67998487e-02 
182 319.40 1.75308931e+00 7.68625682e-02 
183 320.20 1.76370444e+00 5.67944780e-02 
184 321.01 1.78774857e+00 7.64718448e-02 
185 321.82 1.80877548e+00 5.51430999e-02 
186 322.63 1.83425240e+00 4.52853539e-02 
187 323.43 1.85631792e+00 3.60449515e-02 
188 324.24 1.88922537e+00 3.86424675e-02 
189 325.05 1.90893303e+00 2.25924308e-02 
190 325.86 1.93716030e+00 1.53549480e-02 
191 326.67 1.96067862e+00 4.22968842e-02 
192 327.48 1.99899413e+00 2.41637463e-02 
193 328.28 2.01995444e+00 3.77365624e-02 
194 329.09 2.05845408e+00 4.39526005e-02 
195 329.90 2.11697070e+00 3.70298358e-02 
196 330.71 2.19451142e+00 3.28059439e-02 
197 331.52 2.26899075e+00 2.89156129e-02 
198 332.32 2.44870706e+00 4.34075140e-02 
199 333.13 2.74818567e+00 8.52142461e-02 
200 333.94 3.30346533e+00 1.59922548e-01 
201 334.75 4.13548780e+00 2.42876737e-01 
202 335.55 5.23380931e+00 3.13079223e-01 
203 336.36 6.79856666e+00 4.68070664e-01 
204 337.17 9.28475014e+00 5.86043658e-01 
205 337.98 1.26328995e+01 7.39287160e-01 
206 338.79 1.65852629e+01 8.50994813e-01 
207 339.60 2.09261173e+01 8.38375431e-01 
208 340.40 2.46421963e+01 8.40506790e-01 
209 341.21 2.79679375e+01 7.63028611e-01 
210 342.02 3.19244312e+01 6.06625725e-01 
211 342.83 3.49815871e+01 5.14063904e-01 
212 343.63 3.56356182e+01 3.77070233e-01 
213 344.44 3.73602047e+01 2.05120730e-01 
214 345.25 4.15792249e+01 1.00401316e-01 
215 346.06 4.53029715e+01 1.64532158e-01 
216 346.87 4.77524687e+01 3.21731012e-01 
217 347.67 4.95452404e+01 4.46871246e-01 
218 348.48 5.13783913e+01 4.72656824e-01 
219 349.29 5.47522348e+01 5.18629715e-01 
220 350.10 6.01636295e+01 6.44107534e-01 
221 350.90 6.32026304e+01 7.70862153e-01 
222 351.71 6.32544835e+01 8.08118318e-01 
223 352.52 6.51391347e+01 8.37182641e-01 
224 353.33 7.14836349e+01 1.09280780e+00 
225 354.14 7.83494466e+01 1.22149490e+00 
226 354.94 8.09181061e+01 1.40155547e+00 
227 355.75 7.89681727e+01 1.39589649e+00 
228 356.56 7.43251686e+01 1.34359143e+00 
229 357.37 7.02324371e+01 1.33685963e+00 
230 358.18 7.05429573e+01 1.28657517e+00 
231 358.98 8.05974503e+01 1.54796338e+00 
232 359.79 9.15179672e+01 1.80832587e+00 
233 360.60 9.17907918e+01 1.93954877e+00 
234 361.41 9.12231725e+01 1.90920478e+00 
235 362.21 9.68435987e+01 2.05810301e+00 
236 363.02 1.02145328e+02 2.15449609e+00 
237 363.83 1.05327029e+02 2.30382499e+00 
238 364.64 1.11271824e+02 2.47236645e+00 
239 365.44 1.21660470e+02 2.85318696e+00 
240 366.25 1.29091873e+02 3.06935546e+00 
241 367.06 1.29234912e+02 3.04406053e+00 
242 367.87 1.27369764e+02 3.09711208e+00 
243 368.67 1.30109034e+02 3.17919214e+00 
244 369.48 1.35530156e+02 3.40154028e+00 
245 370.29 1.35888712e+02 3.45834534e+00 
246 371.10 1.34208550e+02 3.42370731e+00 
247 371.90 1.30276756e+02 3.44955791e+00 
248 372.71 1.22648162e+02 3.30228330e+00 
249 373.52 1.16475970e+02 3.16945586e+00 
250 374.33 1.17247142e+02 3.23092503e+00 
251 375.13 1.26249824e+02 3.42431963e+00 
252 375.94 1.37240351e+02 3.90826365e+00 
253 376.75 1.49359596e+02 4.22440173e+00 
254 377.56 1.62650144e+02 4.71023602e+00 
255 378.36 1.63773242e+02 4.90672261e+00 
256 379.17 1.54769793e+02 4.55752919e+00 
257 379.98 1.53038981e+02 4.74059430e+00 
258 380.78 1.51582499e+02 4.59660932e+00 
259 381.59 1.36091565e+02 4.37828284e+00 
260 382.40 1.15979633e+02 3.53426353e+00 
261 383.20 1.09394868e+02 3.12075480e+00 
262 384.01 1.20917830e+02 3.29870779e+00 
263 384.82 1.35500280e+02 3.77400333e+00 
264 385.63 1.40155393e+02 3.90117647e+00 
265 386.43 1.41163528e+02 3.90214009e+00 
266 387.24 1.41868075e+02 3.86371933e+00 
267 388.05 1.44542969e+02 3.83772822e+00 
268 388.85 1.54285452e+02 4.02247826e+00 
269 389.66 1.68252846e+02 4.31706415e+00 
270 390.47 1.78233958e+02 4.64014384e+00 
271 391.27 1.76586342e+02 4.67043584e+00 
272 392.08 1.54034719e+02 4.26306105e+00 
273 392.89 1.25003357e+02 3.33085749e+00 
274 393.69 1.23750828e+02 2.96306809e+00 
275 394.50 1.49507105e+02 3.61820159e+00 
276 395.31 1.62067637e+02 4.15341182e+00 
277 396.11 1.47588667e+02 3.96934457e+00 
278 396.92 1.43523709e+02 3.59356772e+00 
279 397.73 1.73887202e+02 4.30207459e+00 
280 398.53 2.11384939e+02 5.50099355e+00 
281 399.34 2.32789350e+02 6.28129033e+00 
282 400.15 2.43350138e+02 6.71281531e+00 
283 400.95 2.51423782e+02 6.94842151e+00 
284 401.76 2.57551320e+02 7.28787259e+00 
285 402.57 2.58606277e+02 7.39731104e+00 
286 403.37 2.56952336e+02 7.38307331e+00 
287 404.18 2.56064224e+02 7.38071183e+00 
288 404.99 2.55064016e+02 7.49520777e+00 
289 405.79 2.54026998e+02 7.32297361e+00 
290 406.60 2.55623642e+02 7.25491850e+00 
291 407.40 2.63028798e+02 7.35701498e+00 
292 408.21 2.72966405e+02 7.45029454e+00 
293 409.02 2.75186432e+02 7.49352216e+00 
294 409.82 2.71555761e+02 7.24806156e+00 
295 410.63 2.76700836e+02 7.05455477e+00 
296 411.43 2.88819509e+02 7.34009698e+00 
297 412.24 2.94568700e+02 7.37295783e+00 
298 413.05 2.94183828e+02 7.18134925e+00 
299 413.85 2.93465139e+02 7.06477101e+00 
300 414.66 2.93021489e+02 6.85683817e+00 
301 415.46 2.93372482e+02 6.94697236e+00 
302 416.27 2.91978613e+02 7.00874371e+00 
303 417.08 2.86423507e+02 6.99853608e+00 
304 417.88 2.80561249e+02 7.09841248e+00 
305 418.69 2.77764496e+02 7.45152718e+00 
306 419.49 2.77609985e+02 7.72680096e+00 
307 420.30 2.80508515e+02 8.06641640e+00 
308 421.11 2.82244375e+02 8.47454519e+00 
309 421.91 2.78136968e+02 8.88642157e+00 
310 422.72 2.73281423e+02 9.14748739e+00 
311 423.52 2.73753082e+02 9.72624996e+00 
312 424.33 2.76727153e+02 1.05142857e+01 
313 425.13 2.78522268e+02 1.12662811e+01 
314 425.94 2.78914169e+02 1.18099117e+01 
315 426.74 2.79109446e+02 1.22236047e+01 
316 427.55 2.79584229e+02 1.26404642e+01 
317 428.36 2.76615753e+02 1.29344242e+01 
318 429.16 2.65796438e+02 1.25667663e+01 
319 429.96 2.56988358e+02 1.20660889e+01 
320 430.77 2.70761281e+02 1.33938891e+01 
321 431.58 3.03463445e+02 1.49819299e+01 
322 432.38 3.32747172e+02 1.65270592e+01 
323 433.19 3.46771144e+02 1.71876624e+01 
324 433.99 3.57061142e+02 1.73033268e+01 
325 434.80 3.75612228e+02 1.77215682e+01 
326 435.60 3.98639277e+02 1.84635908e+01 
327 436.41 4.12995214e+02 1.89526271e+01 
328 437.21 4.13476105e+02 1.86540718e+01 
329 438.02 4.10819087e+02 1.79233207e+01 
330 438.82 4.17469879e+02 1.76083542e+01 
331 439.63 4.33400701e+02 1.78298334e+01 
332 440.43 4.54118749e+02 1.83360304e+01 
333 441.24 4.75348460e+02 1.87961984e+01 
334 442.04 4.93683797e+02 1.91441773e+01 
335 442.85 5.06326579e+02 1.92307467e+01 
336 443.65 5.14348633e+02 1.91807519e+01 
337 444.45 5.17756032e+02 1.89079309e+01 
338 445.26 5.18647502e+02 1.86426749e+01 
339 446.06 5.25567952e+02 1.83903102e+01 
340 446.87 5.40224172e+02 1.86085728e+01 
341 447.67 5.56243062e+02 1.91518743e+01 
342 448.48 5.68699137e+02 1.95503710e+01 
343 449.28 5.81341288e+02 1.98161124e+01 
344 450.09 5.94935567e+02 2.00518282e+01 
345 450.89 6.01253255e+02 2.01511760e+01 
346 451.70 5.94519918e+02 1.97753447e+01 
347 452.50 5.83627625e+02 1.92922136e+01 
348 453.30 5.80570913e+02 1.89575762e+01 
349 454.11 5.85872406e+02 1.88892381e+01 
350 454.91 5.96073385e+02 1.89831799e+01 
351 455.72 6.06740092e+02 1.93221209e+01 
352 456.52 6.15122416e+02 1.95162221e+01 
353 457.32 6.18020121e+02 1.95481598e+01 
354 458.13 6.16735352e+02 1.93184932e+01 
355 458.93 6.16767578e+02 1.90916874e+01 
356 459.74 6.21893036e+02 1.89848434e+01 
357 460.54 6.30913401e+02 1.90422923e+01 
358 461.34 6.39980916e+02 1.91379501e+01 
359 462.15 6.45365387e+02 1.92731798e+01 
360 462.95 6.44803955e+02 1.92215910e+01 
361 463.76 6.40344279e+02 1.90325260e+01 
362 464.56 6.36523499e+02 1.89347711e+01 
363 465.36 6.33904215e+02 1.89835496e+01 
364 466.17 6.32596507e+02 1.92065247e+01 
365 466.97 6.34014669e+02 1.92531403e+01 
366 467.77 6.37779887e+02 1.92001960e+01 
367 468.58 6.41151692e+02 1.90584820e+01 
368 469.38 6.41079630e+02 1.89511527e+01 
369 470.18 6.42529236e+02 1.86610543e+01 
370 470.99 6.50450409e+02 1.86002961e+01 
371 471.79 6.60528452e+02 1.87423111e+01 
372 472.59 6.68643026e+02 1.90121597e+01 
373 473.40 6.74745931e+02 1.92979662e+01 
374 474.20 6.78814067e+02 1.95409772e+01 
375 475.00 6.81157226e+02 1.95379512e+01 
376 475.81 6.83318949e+02 1.96369795e+01 
377 476.61 6.88165609e+02 1.98265844e+01 
378 477.41 6.95486501e+02 2.01029308e+01 
379 478.21 7.02076274e+02 2.04568495e+01 
380 479.02 7.06342397e+02 2.08745687e+01 
381 479.82 7.09350413e+02 2.10543314e+01 
382 480.62 7.12763489e+02 2.13668051e+01 
383 481.43 7.14222046e+02 2.15219665e+01 
384 482.23 7.12403829e+02 2.16284918e+01 
385 483.03 7.06474640e+02 2.16607294e+01 
386 483.84 6.93920227e+02 2.14463777e+01 
387 484.64 6.69619100e+02 2.08278017e+01 
388 485.44 6.42071035e+02 2.01000323e+01 
389 486.24 6.29631124e+02 1.96403277e+01 
390 487.04 6.36776520e+02 1.96517167e+01 
391 487.85 6.56516907e+02 2.02250232e+01 
392 488.65 6.77539734e+02 2.08661942e+01 
393 489.45 6.91029378e+02 2.13858542e+01 
394 490.26 6.94218292e+02 2.16081980e+01 
395 491.06 6.90403036e+02 2.17599903e+01 
396 491.86 6.86074137e+02 2.17188793e+01 
397 492.66 6.87277669e+02 2.16704647e+01 
398 493.46 6.95176483e+02 2.18655532e+01 
399 494.27 7.02923279e+02 2.21069848e+01 
400 495.07 7.06737915e+02 2.21174177e+01 
401 495.87 7.07949097e+02 2.21105114e+01 
402 496.67 7.04218252e+02 2.18714916e+01 
403 497.48 6.98394857e+02 2.17497605e+01 
404 498.28 6.93145762e+02 2.16816419e+01 
405 499.08 6.86646423e+02 2.16287729e+01 
406 499.88 6.79079600e+02 2.14794361e+01 
407 500.68 6.72937795e+02 2.12546433e+01 
408 501.48 6.71008790e+02 2.10643464e+01 
409 502.29 6.73840027e+02 2.10484768e+01 
410 503.09 6.78202342e+02 2.10356190e+01 
411 503.89 6.84220723e+02 2.11864156e+01 
412 504.69 6.91708679e+02 2.15889891e+01 
413 505.49 6.97202596e+02 2.20564056e+01 
414 506.29 6.97476624e+02 2.23952079e+01 
415 507.09 6.93715363e+02 2.24739754e+01 
416 507.90 6.90473724e+02 2.23147321e+01 
417 508.70 6.89694468e+02 2.21682931e+01 
418 509.50 6.90659393e+02 2.22677406e+01 
419 510.30 6.92275696e+02 2.22681579e+01 
420 511.10 6.90928426e+02 2.22115630e+01 
421 511.90 6.85843567e+02 2.18604416e+01 
422 512.71 6.78082174e+02 2.15236179e+01 
423 513.51 6.70264984e+02 2.10823733e+01 
424 514.31 6.64284027e+02 2.06867093e+01 
425 515.11 6.53274811e+02 2.03630558e+01 
426 515.91 6.35141164e+02 1.99264301e+01 
427 516.71 6.18615652e+02 1.96248676e+01 
428 517.51 6.11057617e+02 1.92633125e+01 
429 518.31 6.17733846e+02 1.90893296e+01 
430 519.11 6.33733266e+02 1.92331266e+01 
431 519.91 6.48908244e+02 1.95866727e+01 
432 520.71 6.59604919e+02 1.99352190e+01 
433 521.52 6.63367595e+02 2.00997729e+01 
434 522.32 6.66033142e+02 2.01345075e+01 
435 523.12 6.71333283e+02 2.01762438e+01 
436 523.92 6.76173848e+02 2.02325669e+01 
437 524.72 6.74674367e+02 2.03380009e+01 
438 525.52 6.63493500e+02 1.99721981e+01 
439 526.32 6.52122172e+02 1.94187069e+01 
440 527.12 6.52249725e+02 1.90225597e+01 
441 527.92 6.63053426e+02 1.89635620e+01 
442 528.72 6.77858927e+02 1.92938069e+01 
443 529.52 6.89706217e+02 1.96795723e+01 
444 530.32 6.94303243e+02 1.99290346e+01 
445 531.12 6.90823557e+02 1.97393746e+01 
446 531.92 6.83763580e+02 1.95102709e+01 
447 532.72 6.78343180e+02 1.92476088e+01 
448 533.52 6.78616720e+02 1.91626397e+01 
449 534.32 6.84499725e+02 1.93880117e+01 
450 535.12 6.89171336e+02 1.96273083e+01 
451 535.92 6.88978444e+02 1.95359969e+01 
452 536.72 6.87087341e+02 1.92884694e+01 
453 537.52 6.84278290e+02 1.90069132e+01 
454 538.32 6.79874959e+02 1.87714510e+01 
455 539.12 6.74013448e+02 1.87279269e+01 
456 539.92 6.69094462e+02 1.86111630e+01 
457 540.72 6.68290812e+02 1.84328060e+01 
458 541.52 6.70929830e+02 1.83518354e+01 
459 542.32 6.76264770e+02 1.83615049e+01 
