% C0 (TOA Count Rate, /ms) for 4STAR VIS spectrometer (1044 channels) derived from \\CLOUDGAZER\data_sunsat\rooftop\Fall_2020\data_processed\starsuns\4STAR_20201104starsun.mat and recorded on 2020-12-03 12:01:40.
% C0 built to match AOD from 4STAR to AERONET spline fit for NASA_Ames within 200 m [Alt] and 360 seconds, measured on 20201104.
Pix Wavelength C0 C0err
0 173.18 0.00000000e+00 0.00000000e+00 
1 173.98 -1.00000000e+00 0.00000000e+00 
2 174.77 -1.00000000e+00 0.00000000e+00 
3 175.56 -1.00000000e+00 0.00000000e+00 
4 176.36 -1.00000000e+00 0.00000000e+00 
5 177.15 -1.00000000e+00 0.00000000e+00 
6 177.94 -1.00000000e+00 0.00000000e+00 
7 178.74 -1.00000000e+00 0.00000000e+00 
8 179.53 -1.00000000e+00 0.00000000e+00 
9 180.33 -1.00000000e+00 0.00000000e+00 
10 181.12 -1.00000000e+00 0.00000000e+00 
11 181.92 -1.00000000e+00 0.00000000e+00 
12 182.71 -1.00000000e+00 0.00000000e+00 
13 183.51 -1.00000000e+00 0.00000000e+00 
14 184.30 -1.00000000e+00 0.00000000e+00 
15 185.10 -1.00000000e+00 0.00000000e+00 
16 185.89 -1.00000000e+00 0.00000000e+00 
17 186.69 -1.00000000e+00 0.00000000e+00 
18 187.49 -1.00000000e+00 0.00000000e+00 
19 188.28 -1.00000000e+00 0.00000000e+00 
20 189.08 -1.00000000e+00 0.00000000e+00 
21 189.88 -1.00000000e+00 0.00000000e+00 
22 190.67 -1.00000000e+00 0.00000000e+00 
23 191.47 -1.00000000e+00 0.00000000e+00 
24 192.27 -1.00000000e+00 0.00000000e+00 
25 193.07 -1.00000000e+00 0.00000000e+00 
26 193.86 -1.00000000e+00 0.00000000e+00 
27 194.66 -1.00000000e+00 0.00000000e+00 
28 195.46 -1.00000000e+00 0.00000000e+00 
29 196.26 -1.00000000e+00 0.00000000e+00 
30 197.05 -1.00000000e+00 0.00000000e+00 
31 197.85 -1.00000000e+00 0.00000000e+00 
32 198.65 -1.00000000e+00 0.00000000e+00 
33 199.45 -1.00000000e+00 0.00000000e+00 
34 200.25 -1.00000000e+00 0.00000000e+00 
35 201.05 -1.00000000e+00 0.00000000e+00 
36 201.85 -1.00000000e+00 0.00000000e+00 
37 202.65 -1.00000000e+00 0.00000000e+00 
38 203.44 -1.00000000e+00 0.00000000e+00 
39 204.24 -1.00000000e+00 0.00000000e+00 
40 205.04 -1.00000000e+00 0.00000000e+00 
41 205.84 -1.00000000e+00 0.00000000e+00 
42 206.64 -1.00000000e+00 0.00000000e+00 
43 207.44 -1.00000000e+00 0.00000000e+00 
44 208.24 -1.00000000e+00 0.00000000e+00 
45 209.04 -1.00000000e+00 0.00000000e+00 
46 209.84 -1.00000000e+00 0.00000000e+00 
47 210.64 -1.00000000e+00 0.00000000e+00 
48 211.44 -1.00000000e+00 0.00000000e+00 
49 212.24 -1.00000000e+00 0.00000000e+00 
50 213.04 -1.00000000e+00 0.00000000e+00 
51 213.85 -1.00000000e+00 0.00000000e+00 
52 214.65 -1.00000000e+00 0.00000000e+00 
53 215.45 -1.00000000e+00 0.00000000e+00 
54 216.25 -1.00000000e+00 0.00000000e+00 
55 217.05 -1.00000000e+00 0.00000000e+00 
56 217.85 -1.00000000e+00 0.00000000e+00 
57 218.65 -1.00000000e+00 0.00000000e+00 
58 219.46 -1.00000000e+00 0.00000000e+00 
59 220.26 -1.00000000e+00 0.00000000e+00 
60 221.06 -1.00000000e+00 0.00000000e+00 
61 221.86 -1.00000000e+00 0.00000000e+00 
62 222.66 -1.00000000e+00 0.00000000e+00 
63 223.47 -1.00000000e+00 0.00000000e+00 
64 224.27 -1.00000000e+00 0.00000000e+00 
65 225.07 -1.00000000e+00 0.00000000e+00 
66 225.87 -1.00000000e+00 -1.00000000e+00 
67 226.68 -1.00000000e+00 -1.00000000e+00 
68 227.48 -1.00000000e+00 -1.00000000e+00 
69 228.28 -1.00000000e+00 -1.00000000e+00 
70 229.08 -1.00000000e+00 -1.00000000e+00 
71 229.89 -1.00000000e+00 -1.00000000e+00 
72 230.69 -1.00000000e+00 -1.00000000e+00 
73 231.49 -1.00000000e+00 -1.00000000e+00 
74 232.30 -1.00000000e+00 -1.00000000e+00 
75 233.10 -1.00000000e+00 -1.00000000e+00 
76 233.90 -1.00000000e+00 -1.00000000e+00 
77 234.71 -1.00000000e+00 -1.00000000e+00 
78 235.51 -1.00000000e+00 0.00000000e+00 
79 236.32 -1.00000000e+00 0.00000000e+00 
80 237.12 -1.00000000e+00 0.00000000e+00 
81 237.92 -1.00000000e+00 0.00000000e+00 
82 238.73 -1.00000000e+00 0.00000000e+00 
83 239.53 -1.00000000e+00 0.00000000e+00 
84 240.34 -1.00000000e+00 0.00000000e+00 
85 241.14 -1.00000000e+00 0.00000000e+00 
86 241.94 -1.00000000e+00 0.00000000e+00 
87 242.75 -1.00000000e+00 0.00000000e+00 
88 243.55 -1.00000000e+00 0.00000000e+00 
89 244.36 -1.00000000e+00 0.00000000e+00 
90 245.16 -1.00000000e+00 0.00000000e+00 
91 245.97 -1.00000000e+00 0.00000000e+00 
92 246.77 -1.00000000e+00 0.00000000e+00 
93 247.58 -1.00000000e+00 0.00000000e+00 
94 248.38 -1.00000000e+00 0.00000000e+00 
95 249.19 -1.00000000e+00 0.00000000e+00 
96 249.99 -1.00000000e+00 0.00000000e+00 
97 250.80 -1.00000000e+00 0.00000000e+00 
98 251.60 -1.00000000e+00 0.00000000e+00 
99 252.41 -1.00000000e+00 0.00000000e+00 
100 253.21 -1.00000000e+00 0.00000000e+00 
101 254.02 -1.00000000e+00 0.00000000e+00 
102 254.82 -1.00000000e+00 0.00000000e+00 
103 255.63 -1.00000000e+00 0.00000000e+00 
104 256.44 -1.00000000e+00 0.00000000e+00 
105 257.24 -1.00000000e+00 0.00000000e+00 
106 258.05 -1.00000000e+00 0.00000000e+00 
107 258.85 -1.00000000e+00 0.00000000e+00 
108 259.66 -1.00000000e+00 0.00000000e+00 
109 260.46 -1.00000000e+00 0.00000000e+00 
110 261.27 -1.00000000e+00 0.00000000e+00 
111 262.08 -1.00000000e+00 0.00000000e+00 
112 262.88 -1.00000000e+00 0.00000000e+00 
113 263.69 -1.00000000e+00 0.00000000e+00 
114 264.49 -1.00000000e+00 0.00000000e+00 
115 265.30 -1.00000000e+00 0.00000000e+00 
116 266.11 -1.00000000e+00 0.00000000e+00 
117 266.91 -1.00000000e+00 0.00000000e+00 
118 267.72 -1.00000000e+00 0.00000000e+00 
119 268.53 -1.00000000e+00 0.00000000e+00 
120 269.33 -1.00000000e+00 0.00000000e+00 
121 270.14 -1.00000000e+00 0.00000000e+00 
122 270.95 -1.00000000e+00 0.00000000e+00 
123 271.75 -1.00000000e+00 0.00000000e+00 
124 272.56 -1.00000000e+00 0.00000000e+00 
125 273.37 -1.00000000e+00 0.00000000e+00 
126 274.17 -1.00000000e+00 -1.00000000e+00 
127 274.98 -1.00000000e+00 -1.00000000e+00 
128 275.79 -1.00000000e+00 -1.00000000e+00 
129 276.59 -1.00000000e+00 -1.00000000e+00 
130 277.40 -1.00000000e+00 -1.00000000e+00 
131 278.21 -1.00000000e+00 -1.00000000e+00 
132 279.01 5.14011521e+35 -1.00000000e+00 
133 279.82 2.53357938e+33 -1.00000000e+00 
134 280.63 1.16805131e+31 -1.00000000e+00 
135 281.43 6.10351229e+28 -1.00000000e+00 
136 282.24 5.10338915e+26 -1.00000000e+00 
137 283.05 6.52022709e+24 -1.00000000e+00 
138 283.86 1.01538067e+23 -1.00000000e+00 
139 284.66 1.61866590e+21 -1.00000000e+00 
140 285.47 3.49050170e+19 -1.00000000e+00 
141 286.28 1.15619695e+18 -1.00000000e+00 
142 287.09 4.42076689e+16 1.84564176e+17 
143 287.89 1.75518979e+15 6.95462740e+15 
144 288.70 8.89121145e+13 3.33223964e+14 
145 289.51 6.35857745e+12 2.26776622e+13 
146 290.32 5.84046477e+11 1.96970624e+12 
147 291.12 6.03446845e+10 1.91675793e+11 
148 291.93 6.97344410e+09 2.04347187e+10 
149 292.74 1.01108800e+09 2.75622016e+09 
150 293.55 1.76188288e+08 4.41621856e+08 
151 294.35 3.63727600e+07 8.31886400e+07 
152 295.16 8.74827800e+06 1.82394360e+07 
153 295.97 2.35480325e+06 4.44593900e+06 
154 296.78 7.11850500e+05 1.21125075e+06 
155 297.58 2.41848000e+05 3.69611219e+05 
156 298.39 9.20531719e+04 1.26032156e+05 
157 299.20 4.00189922e+04 4.94169570e+04 
158 300.01 1.89532637e+04 2.09603281e+04 
159 300.81 9.70722168e+03 9.67709668e+03 
160 301.62 5.32944092e+03 4.82709521e+03 
161 302.43 3.13764648e+03 2.58254175e+03 
162 303.24 1.96494409e+03 1.46766858e+03 
163 304.04 1.29460950e+03 8.83699890e+02 
164 304.85 8.79226746e+02 5.50954163e+02 
165 305.66 6.22745117e+02 3.59761658e+02 
166 306.47 4.58735687e+02 2.45611969e+02 
167 307.28 3.46800659e+02 1.72208801e+02 
168 308.08 2.74629211e+02 1.26669472e+02 
169 308.89 2.20667984e+02 9.50554504e+01 
170 309.70 1.77584320e+02 7.13706360e+01 
171 310.51 1.48333252e+02 5.62534752e+01 
172 311.32 1.25242065e+02 4.44745216e+01 
173 312.12 1.05094048e+02 3.50901031e+01 
174 312.93 9.02719421e+01 2.84168320e+01 
175 313.74 8.03881226e+01 2.49994431e+01 
176 314.55 7.15068817e+01 2.03220406e+01 
177 315.36 6.48625793e+01 1.75147972e+01 
178 316.16 5.94408493e+01 1.54834871e+01 
179 316.97 5.49640999e+01 1.37908859e+01 
180 317.78 5.10924034e+01 1.23778257e+01 
181 318.59 4.74019165e+01 1.10436745e+01 
182 319.40 4.47321854e+01 1.01848602e+01 
183 320.20 4.20487938e+01 9.17400837e+00 
184 321.01 3.95450096e+01 8.39724350e+00 
185 321.82 3.79712791e+01 7.87056112e+00 
186 322.63 3.65522308e+01 7.36506557e+00 
187 323.43 3.45106468e+01 6.70301485e+00 
188 324.24 3.31040649e+01 6.27904844e+00 
189 325.05 3.22568970e+01 6.03976583e+00 
190 325.86 3.09032669e+01 5.57286787e+00 
191 326.67 2.96986942e+01 5.19497252e+00 
192 327.48 2.90604496e+01 4.99904490e+00 
193 328.28 2.84516029e+01 4.87850952e+00 
194 329.09 2.75689297e+01 4.49878836e+00 
195 329.90 2.69025002e+01 4.37528467e+00 
196 330.71 2.65563602e+01 4.21916056e+00 
197 331.52 2.60349522e+01 4.08712626e+00 
198 332.32 2.55184746e+01 3.91327167e+00 
199 333.13 2.51400394e+01 3.78726339e+00 
200 333.94 2.51117191e+01 3.68775415e+00 
201 334.75 2.49813251e+01 3.54268837e+00 
202 335.55 2.51972580e+01 3.44518209e+00 
203 336.36 2.59837627e+01 3.37828898e+00 
204 337.17 2.72474117e+01 3.30672622e+00 
205 337.98 2.90106087e+01 3.25977707e+00 
206 338.79 3.14009075e+01 3.12973380e+00 
207 339.60 3.42596207e+01 2.98737216e+00 
208 340.40 3.71833000e+01 2.88210511e+00 
209 341.21 3.95049362e+01 2.79351759e+00 
210 342.02 4.21811714e+01 2.73643231e+00 
211 342.83 4.51302605e+01 2.64837527e+00 
212 343.63 4.62292747e+01 2.62077522e+00 
213 344.44 4.69587669e+01 2.55599403e+00 
214 345.25 4.96466141e+01 2.44411898e+00 
215 346.06 5.28512001e+01 2.38628149e+00 
216 346.87 5.50270195e+01 2.29935861e+00 
217 347.67 5.65955772e+01 2.24396563e+00 
218 348.48 5.80190048e+01 2.23247528e+00 
219 349.29 6.01240387e+01 2.11676955e+00 
220 350.10 6.41373062e+01 2.10847902e+00 
221 350.90 6.76360703e+01 2.01113820e+00 
222 351.71 6.83668900e+01 1.98539829e+00 
223 352.52 6.88809357e+01 1.90520370e+00 
224 353.33 7.28086548e+01 1.97254407e+00 
225 354.14 7.86287079e+01 2.00008798e+00 
226 354.94 8.21410751e+01 1.96213830e+00 
227 355.75 8.19042969e+01 1.81044507e+00 
228 356.56 7.88774796e+01 1.70558119e+00 
229 357.37 7.53748169e+01 1.82343876e+00 
230 358.18 7.37870789e+01 2.08313131e+00 
231 358.98 7.91028137e+01 2.18935990e+00 
232 359.79 8.94167175e+01 2.17835832e+00 
233 360.60 9.28088913e+01 1.70830750e+00 
234 361.41 9.12603760e+01 1.80201268e+00 
235 362.21 9.45709457e+01 1.89027798e+00 
236 363.02 9.94436569e+01 1.87265921e+00 
237 363.83 1.02753693e+02 1.86968482e+00 
238 364.64 1.06154434e+02 1.89458942e+00 
239 365.44 1.13617264e+02 2.25211334e+00 
240 366.25 1.21899185e+02 2.31199765e+00 
241 367.06 1.24052078e+02 2.01957369e+00 
242 367.87 1.22353867e+02 1.58874381e+00 
243 368.67 1.22684296e+02 1.59044099e+00 
244 369.48 1.27514374e+02 1.80505109e+00 
245 370.29 1.29558304e+02 1.71381032e+00 
246 371.10 1.28546768e+02 1.44041061e+00 
247 371.90 1.26437958e+02 1.32046521e+00 
248 372.71 1.20916962e+02 1.17722225e+00 
249 373.52 1.14763596e+02 1.33527303e+00 
250 374.33 1.12423882e+02 1.56557381e+00 
251 375.13 1.18328011e+02 1.27164853e+00 
252 375.94 1.27585442e+02 1.02052152e+00 
253 376.75 1.36812332e+02 1.43011796e+00 
254 377.56 1.49077927e+02 2.46736336e+00 
255 378.36 1.55591492e+02 3.24287128e+00 
256 379.17 1.48971725e+02 2.76588845e+00 
257 379.98 1.44172882e+02 1.96510601e+00 
258 380.78 1.45933228e+02 2.31847620e+00 
259 381.59 1.37521194e+02 2.59849262e+00 
260 382.40 1.19240952e+02 3.04007506e+00 
261 383.20 1.07547523e+02 3.13787198e+00 
262 384.01 1.12585236e+02 2.01977301e+00 
263 384.82 1.27063995e+02 9.66876984e-01 
264 385.63 1.33926514e+02 1.71478629e+00 
265 386.43 1.34711655e+02 1.75157595e+00 
266 387.24 1.35746994e+02 1.87929916e+00 
267 388.05 1.36475327e+02 2.03262067e+00 
268 388.85 1.41924149e+02 1.60990560e+00 
269 389.66 1.53697998e+02 1.55859256e+00 
270 390.47 1.63972916e+02 2.52044988e+00 
271 391.27 1.67817673e+02 3.18137383e+00 
272 392.08 1.56063492e+02 3.61253405e+00 
273 392.89 1.28102219e+02 4.70842123e+00 
274 393.69 1.14202751e+02 4.84625578e+00 
275 394.50 1.32579529e+02 2.40367484e+00 
276 395.31 1.53728012e+02 1.11102974e+00 
277 396.11 1.46836807e+02 3.14545250e+00 
278 396.92 1.32242828e+02 5.08651066e+00 
279 397.73 1.49052673e+02 3.90303063e+00 
280 398.53 1.85074310e+02 1.51775634e+00 
281 399.34 2.08654282e+02 1.73518240e+00 
282 400.15 2.19343460e+02 1.81879306e+00 
283 400.95 2.26461823e+02 1.86683166e+00 
284 401.76 2.33252869e+02 2.04394484e+00 
285 402.57 2.35926697e+02 1.96979415e+00 
286 403.37 2.34732849e+02 1.63807082e+00 
287 404.18 2.33766739e+02 1.36693287e+00 
288 404.99 2.33186417e+02 1.02422535e+00 
289 405.79 2.32202469e+02 9.64575350e-01 
290 406.60 2.32041382e+02 8.91263962e-01 
291 407.40 2.36238571e+02 9.55307543e-01 
292 408.21 2.45301666e+02 1.30893695e+00 
293 409.02 2.51276962e+02 1.47106051e+00 
294 409.82 2.47037155e+02 1.20407808e+00 
295 410.63 2.46076370e+02 1.09340942e+00 
296 411.43 2.57092468e+02 1.28314292e+00 
297 412.24 2.65051086e+02 1.84562886e+00 
298 413.05 2.64736725e+02 1.80935526e+00 
299 413.85 2.63629242e+02 1.46370804e+00 
300 414.66 2.63078613e+02 1.42566597e+00 
301 415.46 2.62621399e+02 1.42666101e+00 
302 416.27 2.63096802e+02 1.60464966e+00 
303 417.08 2.59557648e+02 1.80469227e+00 
304 417.88 2.53471954e+02 1.73948944e+00 
305 418.69 2.50726761e+02 1.48977423e+00 
306 419.49 2.49983170e+02 1.43907344e+00 
307 420.30 2.51622818e+02 1.11833084e+00 
308 421.11 2.55673309e+02 1.50268233e+00 
309 421.91 2.54695038e+02 1.97418034e+00 
310 422.72 2.48999817e+02 1.68630242e+00 
311 423.52 2.48590347e+02 1.31118798e+00 
312 424.33 2.52565277e+02 1.67368007e+00 
313 425.13 2.55068741e+02 1.86705303e+00 
314 425.94 2.56491791e+02 1.93470728e+00 
315 426.74 2.57509552e+02 2.13138890e+00 
316 427.55 2.58519836e+02 2.16836143e+00 
317 428.36 2.59565613e+02 2.37505698e+00 
318 429.16 2.54111389e+02 2.20544052e+00 
319 429.96 2.41873932e+02 3.06040645e+00 
320 430.77 2.42748566e+02 3.30207324e+00 
321 431.58 2.70807129e+02 1.81693232e+00 
322 432.38 3.04043152e+02 3.51242566e+00 
323 433.19 3.20584320e+02 4.10681391e+00 
324 433.99 3.27433167e+02 3.46422601e+00 
325 434.80 3.40508423e+02 3.04852033e+00 
326 435.60 3.63056763e+02 3.75088096e+00 
327 436.41 3.81971436e+02 4.87800980e+00 
328 437.21 3.87307678e+02 5.35377550e+00 
329 438.02 3.82247559e+02 5.51923227e+00 
330 438.82 3.83466339e+02 5.18966627e+00 
331 439.63 3.97191864e+02 4.39315081e+00 
332 440.43 4.14940674e+02 4.82109213e+00 
333 441.24 4.33855652e+02 5.39285421e+00 
334 442.04 4.53036896e+02 6.51273966e+00 
335 442.85 4.66045593e+02 7.43258476e+00 
336 443.65 4.74115509e+02 7.59142256e+00 
337 444.45 4.80316528e+02 7.56084061e+00 
338 445.26 4.81393860e+02 7.66916037e+00 
339 446.06 4.83077484e+02 7.46973133e+00 
340 446.87 4.95538239e+02 6.54322720e+00 
341 447.67 5.13331604e+02 6.72582006e+00 
342 448.48 5.25157043e+02 7.30993176e+00 
343 449.28 5.34750793e+02 7.04796553e+00 
344 450.09 5.48261169e+02 7.12267494e+00 
345 450.89 5.60031860e+02 7.83021164e+00 
346 451.70 5.58244751e+02 8.40097904e+00 
347 452.50 5.46077454e+02 8.19465351e+00 
348 453.30 5.38729492e+02 7.58419466e+00 
349 454.11 5.42982788e+02 6.74701786e+00 
350 454.91 5.51702087e+02 6.56939983e+00 
351 455.72 5.60873657e+02 6.32349682e+00 
352 456.52 5.70637451e+02 6.00874519e+00 
353 457.32 5.75837097e+02 6.10615396e+00 
354 458.13 5.74132080e+02 6.49187088e+00 
355 458.93 5.72124390e+02 6.30504036e+00 
356 459.74 5.74842529e+02 5.55190086e+00 
357 460.54 5.82396301e+02 4.94348764e+00 
358 461.34 5.91817444e+02 4.67625380e+00 
359 462.15 5.98342834e+02 4.76874256e+00 
360 462.95 5.99917358e+02 5.07645893e+00 
361 463.76 5.95831665e+02 5.08606958e+00 
362 464.56 5.90734680e+02 4.97077799e+00 
363 465.36 5.88903870e+02 4.85779428e+00 
364 466.17 5.88358398e+02 4.63404989e+00 
365 466.97 5.87446655e+02 4.51304722e+00 
366 467.77 5.90064514e+02 3.93654132e+00 
367 468.58 5.95016907e+02 3.37529087e+00 
368 469.38 5.95928894e+02 3.63510585e+00 
369 470.18 5.93738647e+02 3.76302624e+00 
370 470.99 5.97338318e+02 3.12563968e+00 
371 471.79 6.08525818e+02 2.96319985e+00 
372 472.59 6.17550903e+02 3.41716194e+00 
373 473.40 6.21366211e+02 3.53510642e+00 
374 474.20 6.25906372e+02 3.38047671e+00 
375 475.00 6.30635925e+02 3.32139564e+00 
376 475.81 6.31534485e+02 3.60401869e+00 
377 476.61 6.33503967e+02 3.64725208e+00 
378 477.41 6.41261230e+02 3.11109090e+00 
379 478.21 6.48951233e+02 3.22932911e+00 
380 479.02 6.53148010e+02 3.58886623e+00 
381 479.82 6.55729187e+02 3.70385432e+00 
382 480.62 6.58673889e+02 3.90693045e+00 
383 481.43 6.61022949e+02 4.29651928e+00 
384 482.23 6.61238220e+02 4.84550905e+00 
385 483.03 6.57274963e+02 5.12607288e+00 
386 483.84 6.49532104e+02 5.35074949e+00 
387 484.64 6.33856018e+02 5.84489918e+00 
388 485.44 6.06777649e+02 6.64474821e+00 
389 486.24 5.83681885e+02 7.59183407e+00 
390 487.04 5.85016724e+02 5.70205879e+00 
391 487.85 6.05290222e+02 3.69198227e+00 
392 488.65 6.24924805e+02 5.19501543e+00 
393 489.45 6.38830566e+02 6.87200451e+00 
394 490.26 6.47263062e+02 8.22658920e+00 
395 491.06 6.45680847e+02 8.70968437e+00 
396 491.86 6.37918274e+02 8.10815907e+00 
397 492.66 6.36823608e+02 7.44619846e+00 
398 493.46 6.44070740e+02 7.25813198e+00 
399 494.27 6.53039368e+02 7.97741652e+00 
400 495.07 6.58366760e+02 8.72741508e+00 
401 495.87 6.59767822e+02 9.15565300e+00 
402 496.67 6.58841431e+02 9.38691902e+00 
403 497.48 6.54954407e+02 9.65577316e+00 
404 498.28 6.48385376e+02 9.68205833e+00 
405 499.08 6.43327454e+02 9.37561321e+00 
406 499.88 6.38467346e+02 9.21477985e+00 
407 500.68 6.30917358e+02 9.58094025e+00 
408 501.48 6.24620667e+02 9.28684902e+00 
409 502.29 6.25465820e+02 8.77182198e+00 
410 503.09 6.28898743e+02 8.93127251e+00 
411 503.89 6.31128906e+02 9.16361237e+00 
412 504.69 6.36662048e+02 8.99058056e+00 
413 505.49 6.45651917e+02 9.36916542e+00 
414 506.29 6.50172485e+02 1.00492506e+01 
415 507.09 6.46347778e+02 1.05279474e+01 
416 507.90 6.40823486e+02 1.04438848e+01 
417 508.70 6.41025818e+02 1.00121298e+01 
418 509.50 6.43839172e+02 1.01301994e+01 
419 510.30 6.45451111e+02 1.03820724e+01 
420 511.10 6.46383789e+02 1.04471579e+01 
421 511.90 6.45122375e+02 1.04389067e+01 
422 512.71 6.38938293e+02 1.05855684e+01 
423 513.51 6.30490967e+02 1.04875355e+01 
424 514.31 6.24966309e+02 1.00221329e+01 
425 515.11 6.20650146e+02 9.95841694e+00 
426 515.91 6.08294556e+02 1.05425873e+01 
427 516.71 5.88225037e+02 1.16495142e+01 
428 517.51 5.74482727e+02 1.12081099e+01 
429 518.31 5.77225342e+02 9.68434238e+00 
430 519.11 5.91636658e+02 8.52699375e+00 
431 519.91 6.07505615e+02 8.34613323e+00 
432 520.71 6.19293213e+02 8.67225361e+00 
433 521.52 6.24708862e+02 9.09043503e+00 
434 522.32 6.25619873e+02 9.44466782e+00 
435 523.12 6.28196655e+02 9.39872074e+00 
436 523.92 6.34508972e+02 8.96130466e+00 
437 524.72 6.39076965e+02 9.00332165e+00 
438 525.52 6.32601868e+02 9.72138500e+00 
439 526.32 6.17614807e+02 1.07557850e+01 
440 527.12 6.09901794e+02 1.07978668e+01 
441 527.92 6.18723511e+02 9.15825272e+00 
442 528.72 6.35844604e+02 7.66118670e+00 
443 529.52 6.47898621e+02 7.70015240e+00 
444 530.32 6.53329346e+02 8.13885784e+00 
445 531.12 6.53386169e+02 8.24210453e+00 
446 531.92 6.46849854e+02 8.84578514e+00 
447 532.72 6.37521484e+02 9.24509716e+00 
448 533.52 6.34711670e+02 8.42103195e+00 
449 534.32 6.39798218e+02 7.10979414e+00 
450 535.12 6.47071106e+02 6.55703974e+00 
451 535.92 6.49241760e+02 6.59437752e+00 
452 536.72 6.45757141e+02 6.55317545e+00 
453 537.52 6.42444885e+02 6.20169544e+00 
454 538.32 6.40723389e+02 6.02225494e+00 
455 539.12 6.35763489e+02 6.21676302e+00 
456 539.92 6.27977783e+02 6.70007610e+00 
457 540.72 6.23315369e+02 6.58982944e+00 
458 541.52 6.25472595e+02 5.70909977e+00 
459 542.32 6.30705444e+02 5.20215511e+00 
460 543.12 6.35001709e+02 4.92419577e+00 
461 543.92 6.38947021e+02 5.03717279e+00 
462 544.72 6.42072449e+02 5.18514252e+00 
463 545.52 6.42926025e+02 4.97288179e+00 
464 546.32 6.41516785e+02 4.84338474e+00 
465 547.12 6.38865295e+02 5.19640446e+00 
