% C0 (TOA Count Rate, /ms) for 4STAR NIR spectrometer (512 channels) derived from /data/sunsat/MLO/May_2022/data_processed/starsuns/4STAR_20220515starsun.mat and recorded on 2022-05-15 12:27:18.
% C0 built to match AOD from 4STAR to AERONET spline fit for Mauna_Loa within 200 m [Alt] and 360 seconds, measured on 20220515.
Pix Wavelength C0 C0err
511 949.79 3.88332057e+00 2.51724601e-01 
510 949.79 4.03381062e+00 2.42893204e-01 
509 951.68 4.42588043e+00 2.52277225e-01 
508 953.57 4.50922346e+00 2.40158856e-01 
507 955.46 5.01406717e+00 2.54676998e-01 
506 957.34 5.13338137e+00 2.43577793e-01 
505 959.22 5.62934208e+00 2.40487918e-01 
504 961.10 5.84007454e+00 2.33026072e-01 
503 962.98 6.33870029e+00 2.17544213e-01 
502 964.85 6.38283634e+00 1.82153463e-01 
501 966.72 7.01829386e+00 1.66426614e-01 
500 968.59 7.10426283e+00 1.37520984e-01 
499 970.45 7.57650089e+00 1.30715877e-01 
498 972.32 7.51718950e+00 1.43520266e-01 
497 974.18 7.80295801e+00 1.46596596e-01 
496 976.04 7.73921824e+00 1.32874131e-01 
495 977.89 8.13077927e+00 1.22859262e-01 
494 979.74 8.04399967e+00 9.38717797e-02 
493 981.59 8.47281933e+00 8.19990635e-02 
492 983.44 8.39451694e+00 6.85827211e-02 
491 985.29 8.76470470e+00 5.77534586e-02 
490 987.13 8.48383904e+00 5.21791242e-02 
489 988.97 8.75351810e+00 4.45290469e-02 
488 990.81 8.57268238e+00 3.83541398e-02 
487 992.65 8.74903679e+00 4.21738923e-02 
486 994.48 8.62786770e+00 4.06555720e-02 
485 996.31 8.66963577e+00 4.32730913e-02 
484 998.14 8.44207668e+00 4.23478335e-02 
483 999.97 8.61499977e+00 3.71614359e-02 
482 1001.79 8.33466530e+00 3.70657295e-02 
481 1003.62 8.42609501e+00 3.87550183e-02 
480 1005.44 8.23307133e+00 3.93602066e-02 
479 1007.25 8.48149014e+00 3.77066694e-02 
478 1009.07 8.22636795e+00 4.34934199e-02 
477 1010.88 8.46162987e+00 3.94699797e-02 
476 1012.69 8.17411518e+00 3.99409384e-02 
475 1014.50 8.33402443e+00 3.71500626e-02 
474 1016.31 8.09035397e+00 4.07207645e-02 
473 1018.11 8.28884602e+00 3.47988456e-02 
472 1019.91 8.03211021e+00 4.15150337e-02 
471 1021.71 8.14089775e+00 4.20125052e-02 
470 1023.51 8.03366184e+00 3.79315354e-02 
469 1025.30 8.09888554e+00 4.12757359e-02 
468 1027.09 8.11251736e+00 4.24227118e-02 
467 1028.88 8.10011768e+00 5.06964326e-02 
466 1030.67 8.11924648e+00 4.24023345e-02 
465 1032.46 8.21426010e+00 3.96341868e-02 
464 1034.24 8.07836628e+00 4.00928780e-02 
463 1036.02 8.27535629e+00 3.98378372e-02 
462 1037.80 8.16816711e+00 3.52222249e-02 
461 1039.58 8.37742901e+00 4.06711251e-02 
460 1041.35 8.25780964e+00 4.20597419e-02 
459 1043.12 8.35689354e+00 4.22977358e-02 
458 1044.89 8.31542873e+00 4.00728993e-02 
457 1046.66 8.52416420e+00 4.16500717e-02 
456 1048.43 8.49179363e+00 3.66533250e-02 
455 1050.19 8.69009972e+00 4.11237702e-02 
454 1051.95 8.44900227e+00 4.36254553e-02 
453 1053.71 8.80779648e+00 3.76385488e-02 
452 1055.47 8.60038471e+00 3.98241691e-02 
451 1057.23 8.74718380e+00 4.23884317e-02 
450 1058.98 8.60215378e+00 4.08405922e-02 
449 1060.73 8.79978657e+00 4.82821055e-02 
448 1062.48 8.55735493e+00 4.32059839e-02 
447 1064.23 8.68544006e+00 4.52725478e-02 
446 1065.97 8.44439888e+00 4.43885624e-02 
445 1067.71 8.51201153e+00 4.15488817e-02 
444 1069.46 8.32865715e+00 3.73048522e-02 
443 1071.19 8.33147240e+00 5.26010506e-02 
442 1072.93 8.31354141e+00 3.35898735e-02 
441 1074.67 8.34656334e+00 4.60539758e-02 
440 1076.40 8.18074703e+00 3.75334173e-02 
439 1078.13 8.12771320e+00 4.42607701e-02 
438 1079.86 7.91200590e+00 3.76002043e-02 
437 1081.58 8.00165844e+00 3.28611247e-02 
436 1083.31 7.81853819e+00 4.14911136e-02 
435 1085.03 8.04612446e+00 4.79533412e-02 
434 1086.75 7.94022036e+00 5.09149171e-02 
433 1088.47 8.01635551e+00 5.62424734e-02 
432 1090.19 7.92829704e+00 6.51864111e-02 
431 1091.90 8.00527000e+00 8.01214650e-02 
430 1093.61 7.87672949e+00 8.29036534e-02 
429 1095.33 8.01200008e+00 1.03711195e-01 
428 1097.03 7.94194460e+00 1.30519867e-01 
427 1098.74 8.14026356e+00 1.69595495e-01 
426 1100.45 8.08539295e+00 1.90775216e-01 
425 1102.15 8.29654598e+00 2.16738909e-01 
424 1103.85 8.25036621e+00 2.32549608e-01 
423 1105.55 8.29113197e+00 2.38672107e-01 
422 1107.25 8.19142818e+00 2.38602877e-01 
421 1108.94 8.20181561e+00 2.63135463e-01 
420 1110.64 7.57297277e+00 2.81700373e-01 
419 1112.33 7.28709364e+00 3.89781952e-01 
418 1114.02 6.50374079e+00 4.58350539e-01 
417 1115.70 6.07800770e+00 5.14925838e-01 
416 1117.39 5.66259813e+00 5.56421995e-01 
415 1119.07 5.48663807e+00 5.81030965e-01 
414 1120.76 5.19427013e+00 5.78982174e-01 
413 1122.44 5.14785528e+00 5.92501104e-01 
412 1124.12 5.09616327e+00 6.14141524e-01 
411 1125.79 5.26112270e+00 6.59863532e-01 
410 1127.47 5.68769407e+00 6.35609210e-01 
409 1129.14 6.06838369e+00 6.12105191e-01 
408 1130.81 5.60889721e+00 5.82343638e-01 
407 1132.48 5.36700773e+00 5.67831874e-01 
406 1134.15 5.38743544e+00 5.57793558e-01 
405 1135.81 6.12832451e+00 5.07612169e-01 
404 1137.48 6.89653349e+00 4.86833364e-01 
403 1139.14 7.17988825e+00 4.67874646e-01 
402 1140.80 6.65250111e+00 4.97267008e-01 
401 1142.46 6.30716896e+00 5.65518200e-01 
400 1144.12 5.91109896e+00 5.83241642e-01 
399 1145.77 5.95550489e+00 5.89526176e-01 
398 1147.43 6.19324684e+00 5.51517487e-01 
397 1149.08 6.53747702e+00 5.15384018e-01 
396 1150.73 6.52911043e+00 5.12376666e-01 
395 1152.38 6.98069096e+00 4.75145131e-01 
394 1154.02 7.11173582e+00 4.32365239e-01 
393 1155.67 7.58647871e+00 3.86075795e-01 
392 1157.31 7.64425993e+00 3.44308585e-01 
391 1158.95 7.93626642e+00 3.09568852e-01 
390 1160.59 8.00246906e+00 2.70735502e-01 
389 1162.23 8.28664112e+00 2.60482788e-01 
388 1163.87 8.25181866e+00 2.47106642e-01 
387 1165.50 8.34787083e+00 2.30776370e-01 
386 1167.13 8.31464863e+00 2.05897748e-01 
385 1168.76 8.40930080e+00 1.77469671e-01 
384 1170.39 8.33320045e+00 1.86725006e-01 
383 1172.02 8.30391216e+00 1.71126142e-01 
382 1173.65 8.13907719e+00 1.77265197e-01 
381 1175.27 8.15562916e+00 1.57159120e-01 
380 1176.90 8.07800102e+00 1.50825739e-01 
379 1178.52 7.95960426e+00 1.76323846e-01 
378 1180.14 7.75577450e+00 1.67740747e-01 
377 1181.75 7.71844673e+00 1.67899594e-01 
376 1183.37 7.56717157e+00 1.69286430e-01 
375 1184.99 7.60748482e+00 1.71030015e-01 
374 1186.60 7.56410646e+00 1.58764675e-01 
373 1188.21 7.51343679e+00 1.39837787e-01 
372 1189.82 7.58706903e+00 1.27402335e-01 
371 1191.43 7.77248383e+00 1.14205725e-01 
370 1193.04 7.63728905e+00 1.11178420e-01 
369 1194.64 7.60831165e+00 1.24424800e-01 
368 1196.24 7.36251736e+00 1.19856343e-01 
367 1197.85 7.42770481e+00 1.30282670e-01 
366 1199.45 7.32825804e+00 1.60217032e-01 
365 1201.05 7.35337257e+00 1.73549876e-01 
364 1202.64 7.22207308e+00 1.74165621e-01 
363 1204.24 7.29031038e+00 1.75578520e-01 
362 1205.83 7.36621904e+00 1.55055240e-01 
361 1207.43 7.24904490e+00 1.26964688e-01 
360 1209.02 7.31238365e+00 1.31601676e-01 
359 1210.61 7.43907213e+00 1.21606104e-01 
358 1212.19 7.45611143e+00 1.21230103e-01 
357 1213.78 7.64630318e+00 1.08093627e-01 
356 1215.37 7.45097971e+00 1.02314197e-01 
355 1216.95 7.60695362e+00 9.88745913e-02 
354 1218.53 7.53154230e+00 1.11032106e-01 
353 1220.11 7.63891125e+00 1.01724125e-01 
352 1221.69 7.67323875e+00 9.61989537e-02 
351 1223.27 7.63853788e+00 8.35356489e-02 
350 1224.84 7.74393415e+00 8.22322890e-02 
349 1226.42 7.71128511e+00 6.92279935e-02 
348 1227.99 7.75774097e+00 6.00228831e-02 
347 1229.56 7.95231581e+00 5.99058345e-02 
346 1231.13 7.80989361e+00 6.06865771e-02 
345 1232.70 7.94443655e+00 6.56754524e-02 
344 1234.27 7.90316439e+00 7.48010725e-02 
343 1235.84 7.80788994e+00 7.21552446e-02 
342 1237.40 7.79366255e+00 8.67963880e-02 
341 1238.96 7.77777863e+00 8.28504339e-02 
340 1240.52 7.62545109e+00 7.37750381e-02 
339 1242.08 7.76285505e+00 8.24430361e-02 
338 1243.64 7.73335409e+00 7.91518092e-02 
337 1245.20 7.77745676e+00 8.75392854e-02 
336 1246.75 7.67582226e+00 9.47858319e-02 
335 1248.31 7.77082634e+00 1.06177025e-01 
334 1249.86 7.61754417e+00 1.16166294e-01 
333 1251.41 7.61024189e+00 1.35078624e-01 
332 1252.96 7.45105982e+00 1.52017817e-01 
331 1254.51 7.49478054e+00 1.74582407e-01 
330 1256.06 7.33044577e+00 2.00917363e-01 
329 1257.61 7.21374846e+00 2.53137171e-01 
328 1259.15 6.95778608e+00 3.05932939e-01 
327 1260.69 6.76011419e+00 3.56347829e-01 
326 1262.23 6.55766869e+00 3.93664867e-01 
325 1263.77 6.42519951e+00 4.22102660e-01 
324 1265.31 6.20056105e+00 4.88456875e-01 
323 1266.85 6.05274534e+00 4.67848033e-01 
322 1268.39 6.32623148e+00 4.51941729e-01 
321 1269.92 6.58105612e+00 3.93587410e-01 
320 1271.46 6.92192650e+00 3.01100343e-01 
319 1272.99 7.09011889e+00 2.54124790e-01 
318 1274.52 7.17298603e+00 2.24682197e-01 
317 1276.05 7.26863527e+00 1.91386774e-01 
316 1277.58 7.17922640e+00 1.59066603e-01 
315 1279.10 7.11854649e+00 1.37953565e-01 
314 1280.63 7.17427301e+00 1.12183049e-01 
313 1282.15 7.14714956e+00 8.87921080e-02 
312 1283.68 7.36550188e+00 7.70733953e-02 
311 1285.20 7.51365852e+00 7.77024552e-02 
310 1286.72 7.41933775e+00 7.89409727e-02 
309 1288.24 7.44808483e+00 8.10265169e-02 
308 1289.75 7.34108734e+00 7.48931691e-02 
307 1291.27 7.41331482e+00 7.51317441e-02 
306 1292.78 7.36448240e+00 6.52061924e-02 
305 1294.30 7.36730528e+00 6.77998289e-02 
304 1295.81 7.21326494e+00 7.23154023e-02 
303 1297.32 7.21186209e+00 8.16649720e-02 
302 1298.83 7.16038609e+00 8.01918134e-02 
301 1300.34 7.06890202e+00 8.77789631e-02 
300 1301.85 7.02292347e+00 1.00327820e-01 
299 1303.35 6.90023232e+00 1.16108343e-01 
298 1304.86 6.76547575e+00 1.14387482e-01 
297 1306.36 6.80801105e+00 1.25862017e-01 
296 1307.86 6.73903370e+00 1.35845259e-01 
295 1309.36 6.56418324e+00 1.30130798e-01 
294 1310.86 6.49339199e+00 1.57899678e-01 
293 1312.36 6.33401012e+00 1.58439532e-01 
292 1313.86 6.32431316e+00 1.72208175e-01 
291 1315.36 6.31121111e+00 1.87266529e-01 
290 1316.85 6.22553492e+00 1.93487585e-01 
289 1318.34 6.13932085e+00 1.99165717e-01 
288 1319.84 5.97197819e+00 2.26220861e-01 
287 1321.33 6.10566950e+00 2.23720014e-01 
286 1322.82 6.01529360e+00 2.08655879e-01 
285 1324.30 5.92722940e+00 2.25678146e-01 
284 1325.79 5.70074749e+00 2.42493287e-01 
283 1327.28 5.40627909e+00 2.85650760e-01 
282 1328.76 4.99200106e+00 3.27062100e-01 
281 1330.25 4.92856169e+00 3.53590339e-01 
280 1331.73 4.77263069e+00 3.44586968e-01 
279 1333.21 4.92494297e+00 3.31867009e-01 
278 1334.69 4.93999290e+00 3.01665962e-01 
277 1336.17 4.89447832e+00 2.71530837e-01 
276 1337.65 4.91435432e+00 2.87780941e-01 
275 1339.12 4.81315613e+00 2.73250580e-01 
274 1340.60 4.52834272e+00 2.86292791e-01 
273 1342.07 4.35281515e+00 3.12392741e-01 
272 1343.55 3.94585419e+00 3.24971467e-01 
271 1345.02 3.24641943e+00 3.50647420e-01 
270 1346.49 2.75866199e+00 3.53480637e-01 
269 1347.96 2.32763410e+00 3.77447486e-01 
268 1349.43 1.81258738e+00 3.78759831e-01 
267 1350.89 1.39763010e+00 3.35084230e-01 
266 1352.36 9.63774443e-01 2.86273479e-01 
265 1353.82 6.88653529e-01 2.49956354e-01 
264 1355.29 4.53113645e-01 1.91857278e-01 
263 1356.75 3.73137057e-01 1.64415926e-01 
262 1358.21 2.92758405e-01 1.26904219e-01 
261 1359.67 1.70142263e-01 9.77720246e-02 
260 1361.13 1.66663170e-01 8.55552182e-02 
259 1362.59 1.69166699e-01 9.25629437e-02 
258 1364.04 2.13042259e-01 1.01122409e-01 
257 1365.50 2.04253092e-01 9.63467807e-02 
256 1366.95 1.75535843e-01 8.77569616e-02 
255 1368.41 1.20922409e-01 8.06173980e-02 
254 1369.86 1.97897166e-01 9.22114328e-02 
253 1371.31 2.79359490e-01 1.25301033e-01 
252 1372.76 3.16644102e-01 1.44332781e-01 
251 1374.21 4.70547646e-01 1.87722147e-01 
250 1375.65 4.68905389e-01 1.83362842e-01 
249 1377.10 4.20383990e-01 1.69550478e-01 
248 1378.55 3.26909065e-01 1.31864175e-01 
247 1379.99 2.29098976e-01 8.91742259e-02 
246 1381.43 1.27392501e-01 6.05969876e-02 
245 1382.87 1.37207642e-01 6.43519238e-02 
244 1384.32 1.84030563e-01 8.14256370e-02 
243 1385.75 3.03426176e-01 1.21714346e-01 
242 1387.19 4.73963886e-01 1.66341424e-01 
241 1388.63 4.60330069e-01 1.72915235e-01 
240 1390.07 5.64515710e-01 1.94479421e-01 
239 1391.50 4.73527014e-01 1.65356591e-01 
238 1392.94 2.97736645e-01 1.28294423e-01 
237 1394.37 4.02040601e-01 1.48440197e-01 
236 1395.80 4.83958393e-01 1.59523711e-01 
235 1397.23 4.48566556e-01 1.48253590e-01 
234 1398.66 5.03496110e-01 1.63100958e-01 
233 1400.09 5.68531990e-01 1.74472809e-01 
232 1401.52 5.48131704e-01 1.53561324e-01 
231 1402.94 6.16019607e-01 1.79940194e-01 
230 1404.37 6.38071358e-01 1.93158388e-01 
229 1405.79 6.29708529e-01 1.90437585e-01 
228 1407.22 6.60434186e-01 1.99944928e-01 
227 1408.64 7.85067677e-01 2.17077434e-01 
226 1410.06 8.82466376e-01 2.22121179e-01 
225 1411.48 9.26650167e-01 2.27767542e-01 
224 1412.90 1.10204434e+00 2.46372804e-01 
223 1414.32 1.17052948e+00 2.50588030e-01 
222 1415.73 1.14693129e+00 2.54782408e-01 
221 1417.15 1.18988037e+00 2.56396562e-01 
220 1418.56 1.28531694e+00 2.62495041e-01 
219 1419.98 1.29146349e+00 2.57414848e-01 
218 1421.39 1.47899401e+00 2.68518746e-01 
217 1422.80 1.66181481e+00 2.74552941e-01 
216 1424.21 1.65747762e+00 2.81933516e-01 
215 1425.62 1.66439629e+00 2.80087709e-01 
214 1427.03 1.80534434e+00 2.82109559e-01 
213 1428.44 1.63164055e+00 2.64114469e-01 
212 1429.84 1.56133497e+00 2.64910460e-01 
211 1431.25 1.64383292e+00 2.84123421e-01 
210 1432.65 1.53646100e+00 3.02482635e-01 
209 1434.06 1.47246313e+00 3.02095562e-01 
208 1435.46 1.65890121e+00 3.18144053e-01 
207 1436.86 1.67204082e+00 3.10812861e-01 
206 1438.26 1.71389890e+00 3.20538312e-01 
205 1439.66 1.76874650e+00 3.21812153e-01 
204 1441.05 1.90345764e+00 3.22321951e-01 
203 1442.45 1.81356430e+00 3.07309210e-01 
202 1443.85 1.95896339e+00 3.06621939e-01 
201 1445.24 2.09166455e+00 2.92756110e-01 
200 1446.64 2.08121037e+00 2.81218827e-01 
199 1448.03 2.11919761e+00 2.82272696e-01 
198 1449.42 2.11586523e+00 2.71609515e-01 
197 1450.81 2.25664043e+00 2.72355199e-01 
196 1452.20 2.34055090e+00 2.62308359e-01 
195 1453.59 2.71261191e+00 2.61997938e-01 
194 1454.97 2.90987659e+00 2.42922038e-01 
193 1456.36 3.01216578e+00 2.40303725e-01 
192 1457.75 3.02604508e+00 2.41001859e-01 
191 1459.13 2.96600199e+00 2.37443849e-01 
190 1460.51 2.88561130e+00 2.48970196e-01 
189 1461.90 2.67238474e+00 2.35482559e-01 
188 1463.28 2.65647054e+00 2.41276756e-01 
187 1464.66 2.53400826e+00 2.41804957e-01 
186 1466.04 2.48126745e+00 2.55619228e-01 
185 1467.41 2.25013256e+00 2.75520146e-01 
184 1468.79 2.13507009e+00 2.79302359e-01 
183 1470.17 2.13145018e+00 2.78003067e-01 
182 1471.54 2.23733878e+00 2.57503480e-01 
181 1472.92 2.50495386e+00 2.51404613e-01 
180 1474.29 2.60392475e+00 2.41209224e-01 
179 1475.66 2.64044023e+00 2.36383021e-01 
178 1477.03 2.50861907e+00 2.40253121e-01 
177 1478.40 2.53324962e+00 2.43115708e-01 
176 1479.77 2.64601970e+00 2.34455213e-01 
175 1481.14 2.71769166e+00 2.18680948e-01 
174 1482.51 2.86945391e+00 2.05946416e-01 
173 1483.87 2.83760619e+00 2.12129444e-01 
172 1485.24 2.80382204e+00 2.06407934e-01 
171 1486.60 2.83691645e+00 1.90777451e-01 
170 1487.96 3.03144932e+00 1.76016673e-01 
169 1489.32 3.08655286e+00 1.47229508e-01 
168 1490.68 3.31005549e+00 1.40184775e-01 
167 1492.04 3.34137368e+00 1.36845738e-01 
166 1493.40 3.33489251e+00 1.25944912e-01 
165 1494.76 3.41315079e+00 1.18646316e-01 
164 1496.12 3.44383883e+00 1.05246313e-01 
163 1497.47 3.44735026e+00 8.80608559e-02 
162 1498.83 3.65286708e+00 8.28315094e-02 
161 1500.18 3.40941596e+00 8.14755186e-02 
160 1501.53 3.39709330e+00 9.03101861e-02 
159 1502.89 3.25147295e+00 8.04758668e-02 
158 1504.24 3.24439096e+00 7.95947760e-02 
157 1505.59 3.42978954e+00 8.89569148e-02 
156 1506.93 3.54041910e+00 7.37833604e-02 
155 1508.28 3.62160754e+00 6.15116246e-02 
154 1509.63 3.61876011e+00 6.38539866e-02 
153 1510.97 3.63365817e+00 6.06716610e-02 
152 1512.32 3.71632695e+00 5.68596572e-02 
151 1513.66 3.60020924e+00 5.62912971e-02 
150 1515.00 3.68439841e+00 7.07975551e-02 
149 1516.34 3.67941165e+00 6.23831302e-02 
148 1517.69 3.63945436e+00 5.50054722e-02 
147 1519.02 3.63121915e+00 4.31397334e-02 
146 1520.36 3.61673713e+00 3.56790088e-02 
145 1521.70 3.63083386e+00 2.86740046e-02 
144 1523.04 3.61899161e+00 2.65400987e-02 
143 1524.37 3.60277390e+00 3.24529745e-02 
142 1525.71 3.62694693e+00 3.11980974e-02 
141 1527.04 3.59795761e+00 3.73167396e-02 
140 1528.37 3.60118461e+00 3.56402248e-02 
139 1529.70 3.49111032e+00 2.70889625e-02 
138 1531.03 3.59801936e+00 3.22930664e-02 
137 1532.36 3.50702643e+00 3.96679193e-02 
136 1533.69 3.53957582e+00 4.03687209e-02 
135 1535.02 3.47845387e+00 3.35523188e-02 
134 1536.34 3.47083282e+00 3.67401354e-02 
133 1537.67 3.45786834e+00 3.82979922e-02 
132 1538.99 3.48413682e+00 3.52405831e-02 
131 1540.31 3.41623807e+00 3.74984592e-02 
130 1541.64 3.37605357e+00 3.02999020e-02 
129 1542.96 3.47816515e+00 3.27045172e-02 
128 1544.28 3.44581008e+00 2.71449350e-02 
127 1545.60 3.42649961e+00 2.35200804e-02 
126 1546.91 3.47759318e+00 2.21145451e-02 
125 1548.23 3.39046073e+00 1.71694588e-02 
124 1549.55 3.45703030e+00 2.57903133e-02 
123 1550.86 3.35660982e+00 2.68636867e-02 
122 1552.18 3.34994984e+00 2.65938845e-02 
121 1553.49 3.36151576e+00 2.91831773e-02 
120 1554.80 3.35344100e+00 2.83066183e-02 
119 1556.11 3.29013801e+00 2.63801347e-02 
118 1557.42 3.31840563e+00 2.13073827e-02 
117 1558.73 3.27275062e+00 2.39670165e-02 
116 1560.04 3.28485942e+00 2.54132226e-02 
115 1561.34 3.19504666e+00 2.79551800e-02 
114 1562.65 3.23199701e+00 2.67744400e-02 
113 1563.95 3.18792939e+00 3.06094065e-02 
112 1565.26 3.22171116e+00 3.93618345e-02 
111 1566.56 2.98082352e+00 4.70755324e-02 
110 1567.86 2.99332213e+00 7.56666511e-02 
109 1569.16 2.89492512e+00 9.38882455e-02 
108 1570.46 2.76378870e+00 1.06680110e-01 
107 1571.76 2.76157260e+00 1.03227966e-01 
106 1573.05 2.68451619e+00 8.77135620e-02 
105 1574.35 2.67987227e+00 8.94413218e-02 
104 1575.64 2.64410996e+00 7.38325045e-02 
103 1576.94 2.69862843e+00 7.53785670e-02 
102 1578.23 2.74607325e+00 8.08074027e-02 
101 1579.52 2.76031065e+00 7.17189088e-02 
100 1580.81 2.82789922e+00 6.22375458e-02 
99 1582.10 2.81260681e+00 3.70157175e-02 
98 1583.39 2.86673975e+00 2.57022623e-02 
97 1584.68 2.87478161e+00 1.84639096e-02 
96 1585.97 2.80282760e+00 1.80595610e-02 
95 1587.25 2.80205631e+00 1.92507971e-02 
94 1588.54 2.81560969e+00 1.69761106e-02 
93 1589.82 2.74405956e+00 1.57625228e-02 
92 1591.10 2.84706569e+00 1.74157619e-02 
91 1592.38 2.78115606e+00 2.01621391e-02 
90 1593.66 2.83821607e+00 1.73040312e-02 
89 1594.94 2.78968215e+00 2.19853390e-02 
88 1596.22 2.73312593e+00 2.58454941e-02 
87 1597.50 2.63863063e+00 4.72091474e-02 
86 1598.77 2.55160546e+00 5.99017926e-02 
85 1600.05 2.46218586e+00 7.68302456e-02 
84 1601.32 2.49823713e+00 8.56918320e-02 
83 1602.59 2.38385534e+00 7.77212158e-02 
82 1603.86 2.53209305e+00 8.47366005e-02 
81 1605.13 2.31369710e+00 6.51596338e-02 
80 1606.40 2.46002913e+00 7.08853900e-02 
79 1607.67 2.32601905e+00 6.74384907e-02 
78 1608.94 2.39642859e+00 6.85305595e-02 
77 1610.20 2.37897325e+00 5.87370582e-02 
76 1611.47 2.45991731e+00 5.07298373e-02 
75 1612.73 2.39663339e+00 4.08104882e-02 
74 1614.00 2.44818807e+00 3.44202816e-02 
73 1615.26 2.46926045e+00 2.70319190e-02 
72 1616.52 2.42769146e+00 2.36242972e-02 
71 1617.78 2.35893798e+00 2.14650221e-02 
70 1619.03 2.44576859e+00 2.33701523e-02 
69 1620.29 2.34859633e+00 2.29032524e-02 
68 1621.55 2.43312836e+00 2.06497815e-02 
67 1622.80 2.35676908e+00 1.57203358e-02 
66 1624.06 2.44673610e+00 2.21586917e-02 
65 1625.31 2.22126365e+00 2.71369033e-02 
64 1626.56 2.41536331e+00 2.29514446e-02 
63 1627.81 2.30672693e+00 2.32693627e-02 
62 1629.06 2.29758978e+00 2.12019980e-02 
61 1630.31 2.26682520e+00 2.76603028e-02 
60 1631.56 2.22037554e+00 2.26363614e-02 
59 1632.80 2.16696405e+00 2.89660394e-02 
58 1634.05 2.23305297e+00 3.22035290e-02 
57 1635.29 2.10132742e+00 3.27257328e-02 
56 1636.53 2.12438822e+00 3.87155227e-02 
55 1637.77 1.98305428e+00 4.07948866e-02 
54 1639.01 2.00727725e+00 3.58232334e-02 
