% C0 (TOA Count Rate, /ms) for 4STAR VIS spectrometer (1044 channels) derived from /data/sunsat/MLO/May_2022/data_processed/starsuns/4STARB_20220515starsun.mat and recorded on 2022-05-16 00:14:07.
% Data outside 1.8x the STD of 501 nm Langley residuals were screened out. For instrument:4STARB
Pix Wavelength C0 C0err
0 171.23 -1.00000000e+00 -1.00000000e+00 
1 172.04 -1.00000000e+00 -1.00000000e+00 
2 172.86 -1.00000000e+00 -1.00000000e+00 
3 173.67 -1.00000000e+00 -1.00000000e+00 
4 174.48 -1.00000000e+00 -1.00000000e+00 
5 175.29 -1.00000000e+00 -1.00000000e+00 
6 176.11 -1.00000000e+00 -1.00000000e+00 
7 176.92 -1.00000000e+00 -1.00000000e+00 
8 177.73 -1.00000000e+00 -1.00000000e+00 
9 178.54 -1.00000000e+00 -1.00000000e+00 
10 179.36 -1.00000000e+00 -1.00000000e+00 
11 180.17 -1.00000000e+00 -1.00000000e+00 
12 180.98 -1.00000000e+00 -1.00000000e+00 
13 181.79 -1.00000000e+00 -1.00000000e+00 
14 182.61 -1.00000000e+00 -1.00000000e+00 
15 183.42 -1.00000000e+00 -1.00000000e+00 
16 184.23 -1.00000000e+00 -1.00000000e+00 
17 185.04 -1.00000000e+00 -1.00000000e+00 
18 185.86 -1.00000000e+00 -1.00000000e+00 
19 186.67 -1.00000000e+00 -1.00000000e+00 
20 187.48 -1.00000000e+00 -1.00000000e+00 
21 188.29 -1.00000000e+00 -1.00000000e+00 
22 189.11 -1.00000000e+00 -1.00000000e+00 
23 189.92 -1.00000000e+00 -1.00000000e+00 
24 190.73 -1.00000000e+00 -1.00000000e+00 
25 191.54 -1.00000000e+00 -1.00000000e+00 
26 192.36 -1.00000000e+00 -1.00000000e+00 
27 193.17 -1.00000000e+00 -1.00000000e+00 
28 193.98 -1.00000000e+00 -1.00000000e+00 
29 194.79 -1.00000000e+00 -1.00000000e+00 
30 195.61 -1.00000000e+00 -1.00000000e+00 
31 196.42 -1.00000000e+00 -1.00000000e+00 
32 197.23 -1.00000000e+00 -1.00000000e+00 
33 198.04 -1.00000000e+00 -1.00000000e+00 
34 198.86 -1.00000000e+00 -1.00000000e+00 
35 199.67 -1.00000000e+00 -1.00000000e+00 
36 200.48 -1.00000000e+00 -1.00000000e+00 
37 201.29 -1.00000000e+00 -1.00000000e+00 
38 202.11 -1.00000000e+00 -1.00000000e+00 
39 202.92 -1.00000000e+00 -1.00000000e+00 
40 203.73 -1.00000000e+00 -1.00000000e+00 
41 204.54 -1.00000000e+00 -1.00000000e+00 
42 205.36 -1.00000000e+00 -1.00000000e+00 
43 206.17 -1.00000000e+00 -1.00000000e+00 
44 206.98 -1.00000000e+00 -1.00000000e+00 
45 207.79 -1.00000000e+00 -1.00000000e+00 
46 208.61 -1.00000000e+00 -1.00000000e+00 
47 209.42 -1.00000000e+00 -1.00000000e+00 
48 210.23 -1.00000000e+00 -1.00000000e+00 
49 211.04 -1.00000000e+00 -1.00000000e+00 
50 211.86 -1.00000000e+00 -1.00000000e+00 
51 212.67 -1.00000000e+00 -1.00000000e+00 
52 213.48 -1.00000000e+00 -1.00000000e+00 
53 214.29 -1.00000000e+00 -1.00000000e+00 
54 215.11 -1.00000000e+00 -1.00000000e+00 
55 215.92 -1.00000000e+00 -1.00000000e+00 
56 216.73 -1.00000000e+00 -1.00000000e+00 
57 217.54 -1.00000000e+00 -1.00000000e+00 
58 218.35 -1.00000000e+00 -1.00000000e+00 
59 219.17 -1.00000000e+00 -1.00000000e+00 
60 219.98 -1.00000000e+00 -1.00000000e+00 
61 220.79 -1.00000000e+00 -1.00000000e+00 
62 221.60 -1.00000000e+00 -1.00000000e+00 
63 222.42 -1.00000000e+00 -1.00000000e+00 
64 223.23 -1.00000000e+00 -1.00000000e+00 
65 224.04 -1.00000000e+00 -1.00000000e+00 
66 224.85 -1.00000000e+00 -1.00000000e+00 
67 225.67 -1.00000000e+00 -1.00000000e+00 
68 226.48 -1.00000000e+00 -1.00000000e+00 
69 227.29 -1.00000000e+00 -1.00000000e+00 
70 228.10 -1.00000000e+00 -1.00000000e+00 
71 228.91 -1.00000000e+00 -1.00000000e+00 
72 229.73 -1.00000000e+00 -1.00000000e+00 
73 230.54 -1.00000000e+00 -1.00000000e+00 
74 231.35 -1.00000000e+00 -1.00000000e+00 
75 232.16 -1.00000000e+00 -1.00000000e+00 
76 232.97 -1.00000000e+00 -1.00000000e+00 
77 233.79 -1.00000000e+00 -1.00000000e+00 
78 234.60 -1.00000000e+00 -1.00000000e+00 
79 235.41 -1.00000000e+00 -1.00000000e+00 
80 236.22 -1.00000000e+00 -1.00000000e+00 
81 237.04 -1.00000000e+00 -1.00000000e+00 
82 237.85 -1.00000000e+00 -1.00000000e+00 
83 238.66 -1.00000000e+00 -1.00000000e+00 
84 239.47 -1.00000000e+00 -1.00000000e+00 
85 240.28 -1.00000000e+00 -1.00000000e+00 
86 241.10 -1.00000000e+00 -1.00000000e+00 
87 241.91 -1.00000000e+00 -1.00000000e+00 
88 242.72 -1.00000000e+00 -1.00000000e+00 
89 243.53 -1.00000000e+00 -1.00000000e+00 
90 244.34 -1.00000000e+00 -1.00000000e+00 
91 245.16 -1.00000000e+00 -1.00000000e+00 
92 245.97 -1.00000000e+00 -1.00000000e+00 
93 246.78 -1.00000000e+00 -1.00000000e+00 
94 247.59 -1.00000000e+00 -1.00000000e+00 
95 248.40 -1.00000000e+00 -1.00000000e+00 
96 249.22 -1.00000000e+00 -1.00000000e+00 
97 250.03 -1.00000000e+00 -1.00000000e+00 
98 250.84 -1.00000000e+00 -1.00000000e+00 
99 251.65 -1.00000000e+00 -1.00000000e+00 
100 252.46 -1.00000000e+00 -1.00000000e+00 
101 253.27 -1.00000000e+00 -1.00000000e+00 
102 254.09 -1.00000000e+00 -1.00000000e+00 
103 254.90 -1.00000000e+00 -1.00000000e+00 
104 255.71 -1.00000000e+00 -1.00000000e+00 
105 256.52 -1.00000000e+00 -1.00000000e+00 
106 257.33 -1.00000000e+00 -1.00000000e+00 
107 258.15 -1.00000000e+00 -1.00000000e+00 
108 258.96 -1.00000000e+00 -1.00000000e+00 
109 259.77 -1.00000000e+00 -1.00000000e+00 
110 260.58 -1.00000000e+00 -1.00000000e+00 
111 261.39 -1.00000000e+00 -1.00000000e+00 
112 262.20 -1.00000000e+00 -1.00000000e+00 
113 263.02 -1.00000000e+00 -1.00000000e+00 
114 263.83 -1.00000000e+00 -1.00000000e+00 
115 264.64 -1.00000000e+00 -1.00000000e+00 
116 265.45 -1.00000000e+00 -1.00000000e+00 
117 266.26 -1.00000000e+00 -1.00000000e+00 
118 267.07 -1.00000000e+00 -1.00000000e+00 
119 267.89 -1.00000000e+00 -1.00000000e+00 
120 268.70 -1.00000000e+00 -1.00000000e+00 
121 269.51 9.65311432e+00 2.89593428e-01 
122 270.32 4.72119999e+00 1.41635999e-01 
123 271.13 1.16736765e+01 3.50210309e-01 
124 271.94 1.64234364e+00 4.92703095e-02 
125 272.75 4.83459806e+00 1.45037949e-01 
126 273.57 6.06852674e+00 1.82055801e-01 
127 274.38 7.86404896e+00 2.35921472e-01 
128 275.19 8.98877239e+00 2.69663185e-01 
129 276.00 1.03022194e+01 3.09066594e-01 
130 276.81 1.00359659e+01 3.01078975e-01 
131 277.62 1.07447815e+01 3.22343439e-01 
132 278.43 1.06298952e+01 3.18896860e-01 
133 279.25 1.29714622e+01 3.89143854e-01 
134 280.06 1.42864742e+01 4.28594232e-01 
135 280.87 1.60104103e+01 4.80312318e-01 
136 281.68 1.82629929e+01 5.47889769e-01 
137 282.49 1.53233490e+01 4.59700465e-01 
138 283.30 1.37603054e+01 4.12809163e-01 
139 284.11 1.93204937e+01 5.79614818e-01 
140 284.93 1.82695427e+01 5.48086286e-01 
141 285.74 1.49925566e+01 4.49776709e-01 
142 286.55 1.26305866e+01 3.78917605e-01 
143 287.36 1.05955238e+01 3.17865729e-01 
144 288.17 8.93927479e+00 2.68178254e-01 
145 288.98 7.82522154e+00 2.34756649e-01 
146 289.79 6.81524992e+00 2.04457492e-01 
147 290.60 6.02208233e+00 1.80662468e-01 
148 291.42 5.40170240e+00 1.62051067e-01 
149 292.23 4.82521105e+00 1.44756332e-01 
150 293.04 4.39261675e+00 1.31778508e-01 
151 293.85 4.08641148e+00 1.22592345e-01 
152 294.66 3.75875616e+00 1.12762682e-01 
153 295.47 3.50954533e+00 1.05286360e-01 
154 296.28 3.32415581e+00 9.97246727e-02 
155 297.09 3.15192413e+00 9.45577249e-02 
156 297.90 3.00212812e+00 9.00638402e-02 
157 298.71 2.89656115e+00 8.68968368e-02 
158 299.53 2.82282948e+00 8.46848860e-02 
159 300.34 2.81046915e+00 8.43140781e-02 
160 301.15 2.80624676e+00 8.41874033e-02 
161 301.96 2.91919017e+00 8.75757039e-02 
162 302.77 3.13525105e+00 9.40575302e-02 
163 303.58 3.47396612e+00 1.04218982e-01 
164 304.39 3.98007607e+00 1.19402282e-01 
165 305.20 4.58888817e+00 1.37666643e-01 
166 306.01 5.46995687e+00 1.64098710e-01 
167 306.82 7.02373457e+00 2.10712031e-01 
168 307.63 8.79680347e+00 2.63904095e-01 
169 308.44 1.02528124e+01 3.07584375e-01 
170 309.26 1.24043007e+01 3.72129023e-01 
171 310.07 1.72722893e+01 5.18168688e-01 
172 310.88 2.32653923e+01 6.97961748e-01 
173 311.69 2.79125595e+01 8.37376773e-01 
174 312.50 3.24329872e+01 9.72989619e-01 
175 313.31 3.72980957e+01 1.11894286e+00 
176 314.12 4.16590996e+01 1.24977303e+00 
177 314.93 4.38973160e+01 1.31691945e+00 
178 315.74 4.74205399e+01 1.42261624e+00 
179 316.55 5.60876160e+01 1.68262851e+00 
180 317.36 6.21674652e+01 1.86502397e+00 
181 318.17 6.41397400e+01 1.92419219e+00 
182 318.98 6.90416031e+01 2.07124805e+00 
183 319.79 7.64391098e+01 2.29317331e+00 
184 320.60 7.97028580e+01 2.39108562e+00 
185 321.41 7.85185318e+01 2.35555601e+00 
186 322.22 7.75345230e+01 2.32603574e+00 
187 323.04 8.00481949e+01 2.40144587e+00 
188 323.85 8.86478729e+01 2.65943623e+00 
189 324.66 1.00578697e+02 3.01736093e+00 
190 325.47 1.14662437e+02 3.43987322e+00 
191 326.28 1.24860558e+02 3.74581671e+00 
192 327.09 1.27017830e+02 3.81053495e+00 
193 327.90 1.27450890e+02 3.82352662e+00 
194 328.71 1.34996857e+02 4.04990578e+00 
195 329.52 1.44341888e+02 4.33025646e+00 
196 330.33 1.43652435e+02 4.30957317e+00 
197 331.14 1.40387375e+02 4.21162128e+00 
198 331.95 1.40115845e+02 4.20347548e+00 
199 332.76 1.39750671e+02 4.19252014e+00 
200 333.57 1.41196014e+02 4.23588037e+00 
201 334.38 1.45025024e+02 4.35075092e+00 
202 335.19 1.43484299e+02 4.30452919e+00 
203 336.00 1.35123077e+02 4.05369234e+00 
204 336.81 1.33518921e+02 4.00556755e+00 
205 337.62 1.41130844e+02 4.23392534e+00 
206 338.43 1.50223129e+02 4.50669384e+00 
207 339.24 1.58659744e+02 4.75979233e+00 
208 340.05 1.63364120e+02 4.90092373e+00 
209 340.86 1.61331268e+02 4.83993816e+00 
210 341.67 1.62526306e+02 4.87578917e+00 
211 342.48 1.65999100e+02 4.97997284e+00 
212 343.29 1.59061462e+02 4.77184391e+00 
213 344.10 1.49668213e+02 4.49004650e+00 
214 344.91 1.54199341e+02 4.62598038e+00 
215 345.72 1.61123016e+02 4.83369064e+00 
216 346.53 1.62888702e+02 4.88666105e+00 
217 347.34 1.62246857e+02 4.86740589e+00 
218 348.15 1.61439697e+02 4.84319115e+00 
219 348.96 1.64038544e+02 4.92115641e+00 
220 349.77 1.74190262e+02 5.22570801e+00 
221 350.58 1.82070312e+02 5.46210957e+00 
222 351.39 1.79048615e+02 5.37145853e+00 
223 352.19 1.75742554e+02 5.27227640e+00 
224 353.00 1.83972366e+02 5.51917076e+00 
225 353.81 1.97753479e+02 5.93260431e+00 
226 354.62 2.01979370e+02 6.05938101e+00 
227 355.43 1.94214157e+02 5.82642460e+00 
228 356.24 1.78075317e+02 5.34225941e+00 
229 357.05 1.61654388e+02 4.84963179e+00 
230 357.86 1.52433380e+02 4.57300138e+00 
231 358.67 1.62396622e+02 4.87189865e+00 
232 359.48 1.85843079e+02 5.57529259e+00 
233 360.29 1.89558472e+02 5.68675423e+00 
234 361.10 1.82345215e+02 5.47035646e+00 
235 361.91 1.87636871e+02 5.62910604e+00 
236 362.72 1.97045731e+02 5.91137171e+00 
237 363.53 2.01945953e+02 6.05837870e+00 
238 364.34 2.08797791e+02 6.26393366e+00 
239 365.14 2.24713959e+02 6.74141884e+00 
240 365.95 2.40799561e+02 7.22398663e+00 
241 366.76 2.42874802e+02 7.28624392e+00 
242 367.57 2.37541458e+02 7.12624359e+00 
243 368.38 2.37623810e+02 7.12871408e+00 
244 369.19 2.46604965e+02 7.39814901e+00 
245 370.00 2.49410751e+02 7.48232269e+00 
246 370.81 2.46256088e+02 7.38768244e+00 
247 371.62 2.40830688e+02 7.22492075e+00 
248 372.43 2.28385834e+02 6.85157490e+00 
249 373.24 2.15352509e+02 6.46057510e+00 
250 374.04 2.12219315e+02 6.36657953e+00 
251 374.85 2.25089523e+02 6.75268555e+00 
252 375.66 2.45188904e+02 7.35566711e+00 
253 376.47 2.66652832e+02 7.99958515e+00 
254 377.28 2.93307770e+02 8.79923344e+00 
255 378.09 3.04765472e+02 9.14296436e+00 
256 378.90 2.91412506e+02 8.74237537e+00 
257 379.71 2.84248108e+02 8.52744293e+00 
258 380.51 2.86042755e+02 8.58128262e+00 
259 381.32 2.65737640e+02 7.97212934e+00 
260 382.13 2.28930237e+02 6.86790705e+00 
261 382.94 2.08431335e+02 6.25294018e+00 
262 383.75 2.23127090e+02 6.69381285e+00 
263 384.56 2.53365097e+02 7.60095310e+00 
264 385.37 2.68675537e+02 8.06026649e+00 
265 386.17 2.72877014e+02 8.18631077e+00 
266 386.98 2.76241486e+02 8.28724480e+00 
267 387.79 2.80813446e+02 8.42440319e+00 
268 388.60 2.97597839e+02 8.92793560e+00 
269 389.41 3.26017822e+02 9.78053474e+00 
270 390.22 3.51098511e+02 1.05329552e+01 
271 391.02 3.58234375e+02 1.07470312e+01 
272 391.83 3.26511780e+02 9.79535294e+00 
273 392.64 2.68461273e+02 8.05383778e+00 
274 393.45 2.50779312e+02 7.52337933e+00 
275 394.26 2.96318359e+02 8.88955116e+00 
276 395.07 3.36278046e+02 1.00883417e+01 
277 395.87 3.19428619e+02 9.58285904e+00 
278 396.68 3.01566650e+02 9.04699993e+00 
279 397.49 3.50653442e+02 1.05196037e+01 
280 398.30 4.32193695e+02 1.29658108e+01 
281 399.11 4.88029938e+02 1.46408978e+01 
282 399.91 5.15863647e+02 1.54759092e+01 
283 400.72 5.34411987e+02 1.60323601e+01 
284 401.53 5.48702637e+02 1.64610786e+01 
285 402.34 5.52714294e+02 1.65814285e+01 
286 403.15 5.49367859e+02 1.64810352e+01 
287 403.95 5.45873718e+02 1.63762112e+01 
288 404.76 5.42740540e+02 1.62822170e+01 
289 405.57 5.39381653e+02 1.61814499e+01 
290 406.38 5.39634521e+02 1.61890354e+01 
291 407.18 5.50585205e+02 1.65175552e+01 
292 407.99 5.69877197e+02 1.70963154e+01 
293 408.80 5.78206177e+02 1.73461857e+01 
294 409.61 5.71678894e+02 1.71503677e+01 
295 410.41 5.77931091e+02 1.73379326e+01 
296 411.22 6.01870911e+02 1.80561275e+01 
297 412.03 6.19010986e+02 1.85703297e+01 
298 412.84 6.23466248e+02 1.87039871e+01 
299 413.64 6.25747986e+02 1.87724400e+01 
300 414.45 6.29897217e+02 1.88969173e+01 
301 415.26 6.36509216e+02 1.90952759e+01 
302 416.07 6.41384277e+02 1.92415276e+01 
303 416.87 6.38072998e+02 1.91421890e+01 
304 417.68 6.32792358e+02 1.89837704e+01 
305 418.49 6.33138306e+02 1.89941483e+01 
306 419.30 6.39786133e+02 1.91935844e+01 
307 420.10 6.53211914e+02 1.95963573e+01 
308 420.91 6.65582336e+02 1.99674702e+01 
309 421.72 6.63775391e+02 1.99132614e+01 
310 422.52 6.56261841e+02 1.96878548e+01 
311 423.33 6.57319153e+02 1.97195740e+01 
312 424.14 6.64039795e+02 1.99211941e+01 
313 424.95 6.67661194e+02 2.00298367e+01 
314 425.75 6.66146240e+02 1.99843864e+01 
315 426.56 6.60821655e+02 1.98246498e+01 
316 427.37 6.54427185e+02 1.96328163e+01 
317 428.17 6.40878296e+02 1.92263489e+01 
318 428.98 6.10215515e+02 1.83064651e+01 
319 429.79 5.77591675e+02 1.73277512e+01 
320 430.59 5.84357483e+02 1.75307236e+01 
321 431.40 6.33190491e+02 1.89957142e+01 
322 432.21 6.82624390e+02 2.04787312e+01 
323 433.01 7.02883789e+02 2.10865135e+01 
324 433.82 7.09605469e+02 2.12881641e+01 
325 434.63 7.27135437e+02 2.18140640e+01 
326 435.43 7.54648560e+02 2.26394577e+01 
327 436.24 7.71519287e+02 2.31455784e+01 
328 437.05 7.64434082e+02 2.29330215e+01 
329 437.85 7.47970093e+02 2.24391022e+01 
330 438.66 7.44783325e+02 2.23435001e+01 
331 439.47 7.58438965e+02 2.27531681e+01 
332 440.27 7.82522217e+02 2.34756660e+01 
333 441.08 8.09902344e+02 2.42970695e+01 
334 441.89 8.32852356e+02 2.49855709e+01 
335 442.69 8.47737793e+02 2.54321346e+01 
336 443.50 8.55727661e+02 2.56718292e+01 
337 444.30 8.55965210e+02 2.56789570e+01 
338 445.11 8.51483521e+02 2.55445061e+01 
339 445.92 8.55593445e+02 2.56678028e+01 
340 446.72 8.72708557e+02 2.61812572e+01 
341 447.53 8.93427246e+02 2.68028183e+01 
342 448.33 9.09847717e+02 2.72954311e+01 
343 449.14 9.25973694e+02 2.77792110e+01 
344 449.95 9.43812378e+02 2.83143711e+01 
345 450.75 9.52483398e+02 2.85745010e+01 
346 451.56 9.42958618e+02 2.82887592e+01 
347 452.36 9.25118835e+02 2.77535648e+01 
348 453.17 9.16310181e+02 2.74893055e+01 
349 453.98 9.19187500e+02 2.75756245e+01 
350 454.78 9.30048340e+02 2.79014511e+01 
351 455.59 9.44277405e+02 2.83283215e+01 
352 456.39 9.55630127e+02 2.86689034e+01 
353 457.20 9.59857727e+02 2.87957325e+01 
354 458.00 9.56857605e+02 2.87057285e+01 
355 458.81 9.54430664e+02 2.86329193e+01 
356 459.61 9.59462769e+02 2.87838821e+01 
357 460.42 9.70661072e+02 2.91198330e+01 
358 461.23 9.82205505e+02 2.94661655e+01 
359 462.03 9.88882935e+02 2.96664886e+01 
360 462.84 9.86734070e+02 2.96020222e+01 
361 463.64 9.78615112e+02 2.93584538e+01 
362 464.45 9.72316711e+02 2.91695023e+01 
363 465.25 9.67530334e+02 2.90259094e+01 
364 466.06 9.64693481e+02 2.89408035e+01 
365 466.86 9.65261292e+02 2.89578381e+01 
366 467.67 9.69205566e+02 2.90761662e+01 
367 468.47 9.73256042e+02 2.91976814e+01 
368 469.28 9.72904785e+02 2.91871433e+01 
369 470.08 9.73749023e+02 2.92124710e+01 
370 470.89 9.83011841e+02 2.94903545e+01 
371 471.69 9.95583862e+02 2.98675156e+01 
372 472.50 1.00533960e+03 3.01601887e+01 
373 473.30 1.01289899e+03 3.03869705e+01 
374 474.11 1.01858032e+03 3.05574093e+01 
375 474.91 1.02190692e+03 3.06572075e+01 
376 475.72 1.02511096e+03 3.07533283e+01 
377 476.52 1.03165942e+03 3.09497833e+01 
378 477.33 1.04114246e+03 3.12342739e+01 
379 478.13 1.05042859e+03 3.15128574e+01 
380 478.93 1.05696631e+03 3.17089901e+01 
381 479.74 1.06165735e+03 3.18497200e+01 
382 480.54 1.06584302e+03 3.19752903e+01 
383 481.35 1.06739429e+03 3.20218277e+01 
384 482.15 1.06456873e+03 3.19370613e+01 
385 482.96 1.05642065e+03 3.16926193e+01 
386 483.76 1.03880676e+03 3.11642036e+01 
387 484.57 1.00596539e+03 3.01789627e+01 
388 485.37 9.68182495e+02 2.90454750e+01 
389 486.17 9.49865967e+02 2.84959793e+01 
390 486.98 9.58548218e+02 2.87564468e+01 
391 487.78 9.84485291e+02 2.95345592e+01 
392 488.59 1.01496204e+03 3.04488602e+01 
393 489.39 1.03762744e+03 3.11288223e+01 
394 490.19 1.04478027e+03 3.13434086e+01 
395 491.00 1.04068127e+03 3.12204380e+01 
396 491.80 1.03553821e+03 3.10661469e+01 
397 492.61 1.03858875e+03 3.11576614e+01 
398 493.41 1.05096362e+03 3.15289078e+01 
399 494.21 1.06436975e+03 3.19310932e+01 
400 495.02 1.07235864e+03 3.21707611e+01 
401 495.82 1.07597681e+03 3.22793045e+01 
402 496.63 1.07268958e+03 3.21806870e+01 
403 497.43 1.06598999e+03 3.19797001e+01 
404 498.23 1.05935803e+03 3.17807407e+01 
405 499.04 1.05173523e+03 3.15520573e+01 
406 499.84 1.04253345e+03 3.12760029e+01 
407 500.64 1.03516199e+03 3.10548592e+01 
408 501.45 1.03514465e+03 3.10543404e+01 
409 502.25 1.04136389e+03 3.12409172e+01 
410 503.05 1.05013611e+03 3.15040836e+01 
411 503.86 1.06200415e+03 3.18601246e+01 
412 504.66 1.07579419e+03 3.22738266e+01 
413 505.46 1.08471423e+03 3.25414276e+01 
414 506.27 1.08644629e+03 3.25933876e+01 
415 507.07 1.08192224e+03 3.24576683e+01 
416 507.87 1.07794214e+03 3.23382645e+01 
417 508.68 1.07714417e+03 3.23143234e+01 
418 509.48 1.08039258e+03 3.24117775e+01 
419 510.28 1.08434863e+03 3.25304604e+01 
420 511.08 1.08457202e+03 3.25371590e+01 
421 511.89 1.07848560e+03 3.23545685e+01 
422 512.69 1.06727466e+03 3.20182381e+01 
423 513.49 1.05566174e+03 3.16698532e+01 
424 514.30 1.04638623e+03 3.13915863e+01 
425 515.10 1.02994543e+03 3.08983631e+01 
426 515.90 1.00295850e+03 3.00887547e+01 
427 516.70 9.77884644e+02 2.93365402e+01 
428 517.51 9.66750488e+02 2.90025139e+01 
429 518.31 9.77328979e+02 2.93198700e+01 
430 519.11 1.00161310e+03 3.00483932e+01 
431 519.91 1.02591589e+03 3.07774773e+01 
432 520.72 1.04312073e+03 3.12936211e+01 
433 521.52 1.05050928e+03 3.15152779e+01 
434 522.32 1.05579517e+03 3.16738548e+01 
435 523.12 1.06492151e+03 3.19476452e+01 
436 523.93 1.07253809e+03 3.21761436e+01 
437 524.73 1.06936682e+03 3.20810051e+01 
438 525.53 1.05249573e+03 3.15748711e+01 
439 526.33 1.03628259e+03 3.10884781e+01 
440 527.13 1.03689600e+03 3.11068802e+01 
441 527.94 1.05283459e+03 3.15850372e+01 
442 528.74 1.07424097e+03 3.22272301e+01 
443 529.54 1.09150854e+03 3.27452545e+01 
444 530.34 1.09837695e+03 3.29513092e+01 
445 531.14 1.09328845e+03 3.27986526e+01 
446 531.95 1.08178186e+03 3.24534569e+01 
447 532.75 1.07356348e+03 3.22069054e+01 
448 533.55 1.07327075e+03 3.21981239e+01 
449 534.35 1.08044775e+03 3.24134331e+01 
450 535.15 1.08564307e+03 3.25692902e+01 
451 535.95 1.08480530e+03 3.25441589e+01 
452 536.76 1.08072705e+03 3.24218102e+01 
453 537.56 1.07617590e+03 3.22852783e+01 
454 538.36 1.06894324e+03 3.20682983e+01 
455 539.16 1.05894189e+03 3.17682571e+01 
456 539.96 1.05123230e+03 3.15369682e+01 
457 540.76 1.04972253e+03 3.14916763e+01 
458 541.56 1.05469165e+03 3.16407490e+01 
459 542.36 1.06355688e+03 3.19067059e+01 
460 543.17 1.07170386e+03 3.21511154e+01 
461 543.97 1.07581519e+03 3.22744560e+01 
462 544.77 1.07828088e+03 3.23484268e+01 
463 545.57 1.07669019e+03 3.23007050e+01 
464 546.37 1.07236938e+03 3.21710815e+01 
