% C0 (TOA Count Rate, /ms) for 4STAR VIS spectrometer (1044 channels) derived from /data/sunsat/rooftop/Spring_2022/data_processed/starsuns/4STAR_20220405starsun.mat and recorded on 2022-04-06 00:13:22.
% C0 built to match AOD from 4STAR to AERONET spline fit for NASA_Ames within 200 m [Alt] and 360 seconds, measured on 20220405.
Pix Wavelength C0 C0err
0 173.18 0.00000000e+00 0.00000000e+00 
1 173.98 -1.00000000e+00 0.00000000e+00 
2 174.77 -1.00000000e+00 0.00000000e+00 
3 175.56 -1.00000000e+00 0.00000000e+00 
4 176.36 -1.00000000e+00 0.00000000e+00 
5 177.15 -1.00000000e+00 0.00000000e+00 
6 177.94 -1.00000000e+00 0.00000000e+00 
7 178.74 -1.00000000e+00 0.00000000e+00 
8 179.53 -1.00000000e+00 0.00000000e+00 
9 180.33 -1.00000000e+00 0.00000000e+00 
10 181.12 -1.00000000e+00 0.00000000e+00 
11 181.92 -1.00000000e+00 0.00000000e+00 
12 182.71 -1.00000000e+00 0.00000000e+00 
13 183.51 -1.00000000e+00 0.00000000e+00 
14 184.30 -1.00000000e+00 0.00000000e+00 
15 185.10 -1.00000000e+00 0.00000000e+00 
16 185.89 -1.00000000e+00 0.00000000e+00 
17 186.69 -1.00000000e+00 0.00000000e+00 
18 187.49 -1.00000000e+00 0.00000000e+00 
19 188.28 -1.00000000e+00 0.00000000e+00 
20 189.08 -1.00000000e+00 0.00000000e+00 
21 189.88 -1.00000000e+00 0.00000000e+00 
22 190.67 -1.00000000e+00 0.00000000e+00 
23 191.47 -1.00000000e+00 0.00000000e+00 
24 192.27 -1.00000000e+00 0.00000000e+00 
25 193.07 -1.00000000e+00 0.00000000e+00 
26 193.86 -1.00000000e+00 0.00000000e+00 
27 194.66 -1.00000000e+00 0.00000000e+00 
28 195.46 -1.00000000e+00 0.00000000e+00 
29 196.26 -1.00000000e+00 0.00000000e+00 
30 197.05 -1.00000000e+00 0.00000000e+00 
31 197.85 -1.00000000e+00 0.00000000e+00 
32 198.65 -1.00000000e+00 0.00000000e+00 
33 199.45 -1.00000000e+00 0.00000000e+00 
34 200.25 -1.00000000e+00 0.00000000e+00 
35 201.05 -1.00000000e+00 0.00000000e+00 
36 201.85 -1.00000000e+00 0.00000000e+00 
37 202.65 -1.00000000e+00 0.00000000e+00 
38 203.44 -1.00000000e+00 0.00000000e+00 
39 204.24 -1.00000000e+00 0.00000000e+00 
40 205.04 -1.00000000e+00 0.00000000e+00 
41 205.84 -1.00000000e+00 0.00000000e+00 
42 206.64 -1.00000000e+00 0.00000000e+00 
43 207.44 -1.00000000e+00 0.00000000e+00 
44 208.24 -1.00000000e+00 0.00000000e+00 
45 209.04 -1.00000000e+00 0.00000000e+00 
46 209.84 -1.00000000e+00 0.00000000e+00 
47 210.64 -1.00000000e+00 0.00000000e+00 
48 211.44 -1.00000000e+00 0.00000000e+00 
49 212.24 -1.00000000e+00 0.00000000e+00 
50 213.04 -1.00000000e+00 0.00000000e+00 
51 213.85 -1.00000000e+00 0.00000000e+00 
52 214.65 -1.00000000e+00 0.00000000e+00 
53 215.45 -1.00000000e+00 0.00000000e+00 
54 216.25 -1.00000000e+00 0.00000000e+00 
55 217.05 -1.00000000e+00 0.00000000e+00 
56 217.85 -1.00000000e+00 -1.00000000e+00 
57 218.65 -1.00000000e+00 -1.00000000e+00 
58 219.46 -1.00000000e+00 -1.00000000e+00 
59 220.26 -1.00000000e+00 -1.00000000e+00 
60 221.06 -1.00000000e+00 -1.00000000e+00 
61 221.86 -1.00000000e+00 -1.00000000e+00 
62 222.66 -1.00000000e+00 -1.00000000e+00 
63 223.47 -1.00000000e+00 -1.00000000e+00 
64 224.27 -1.00000000e+00 -1.00000000e+00 
65 225.07 -1.00000000e+00 -1.00000000e+00 
66 225.87 -1.00000000e+00 -1.00000000e+00 
67 226.68 8.44608261e+35 -1.00000000e+00 
68 227.48 2.80776140e+34 -1.00000000e+00 
69 228.28 1.17416485e+33 -1.00000000e+00 
70 229.08 8.68926458e+31 -1.00000000e+00 
71 229.89 1.82953804e+31 -1.00000000e+00 
72 230.69 1.60311047e+31 -1.00000000e+00 
73 231.49 6.70814900e+31 -1.00000000e+00 
74 232.30 9.94727917e+32 -1.00000000e+00 
75 233.10 3.08365962e+34 -1.00000000e+00 
76 233.90 1.34852988e+36 -1.00000000e+00 
77 234.71 -1.00000000e+00 -1.00000000e+00 
78 235.51 -1.00000000e+00 -1.00000000e+00 
79 236.32 -1.00000000e+00 -1.00000000e+00 
80 237.12 -1.00000000e+00 -1.00000000e+00 
81 237.92 -1.00000000e+00 -1.00000000e+00 
82 238.73 -1.00000000e+00 -1.00000000e+00 
83 239.53 -1.00000000e+00 -1.00000000e+00 
84 240.34 -1.00000000e+00 -1.00000000e+00 
85 241.14 -1.00000000e+00 -1.00000000e+00 
86 241.94 -1.00000000e+00 -1.00000000e+00 
87 242.75 -1.00000000e+00 0.00000000e+00 
88 243.55 -1.00000000e+00 0.00000000e+00 
89 244.36 -1.00000000e+00 0.00000000e+00 
90 245.16 -1.00000000e+00 0.00000000e+00 
91 245.97 -1.00000000e+00 0.00000000e+00 
92 246.77 -1.00000000e+00 0.00000000e+00 
93 247.58 -1.00000000e+00 0.00000000e+00 
94 248.38 -1.00000000e+00 0.00000000e+00 
95 249.19 -1.00000000e+00 0.00000000e+00 
96 249.99 -1.00000000e+00 0.00000000e+00 
97 250.80 -1.00000000e+00 0.00000000e+00 
98 251.60 -1.00000000e+00 0.00000000e+00 
99 252.41 -1.00000000e+00 0.00000000e+00 
100 253.21 -1.00000000e+00 0.00000000e+00 
101 254.02 -1.00000000e+00 0.00000000e+00 
102 254.82 -1.00000000e+00 0.00000000e+00 
103 255.63 -1.00000000e+00 0.00000000e+00 
104 256.44 -1.00000000e+00 0.00000000e+00 
105 257.24 -1.00000000e+00 0.00000000e+00 
106 258.05 -1.00000000e+00 0.00000000e+00 
107 258.85 -1.00000000e+00 0.00000000e+00 
108 259.66 -1.00000000e+00 0.00000000e+00 
109 260.46 -1.00000000e+00 0.00000000e+00 
110 261.27 -1.00000000e+00 0.00000000e+00 
111 262.08 -1.00000000e+00 0.00000000e+00 
112 262.88 -1.00000000e+00 0.00000000e+00 
113 263.69 -1.00000000e+00 0.00000000e+00 
114 264.49 -1.00000000e+00 0.00000000e+00 
115 265.30 -1.00000000e+00 0.00000000e+00 
116 266.11 -1.00000000e+00 0.00000000e+00 
117 266.91 -1.00000000e+00 -1.00000000e+00 
118 267.72 -1.00000000e+00 -1.00000000e+00 
119 268.53 -1.00000000e+00 -1.00000000e+00 
120 269.33 -1.00000000e+00 -1.00000000e+00 
121 270.14 -1.00000000e+00 -1.00000000e+00 
122 270.95 -1.00000000e+00 -1.00000000e+00 
123 271.75 -1.00000000e+00 -1.00000000e+00 
124 272.56 -1.00000000e+00 -1.00000000e+00 
125 273.37 -1.00000000e+00 -1.00000000e+00 
126 274.17 3.92653664e+36 -1.00000000e+00 
127 274.98 4.86780901e+34 -1.00000000e+00 
128 275.79 7.15744744e+32 -1.00000000e+00 
129 276.59 1.21519096e+31 -1.00000000e+00 
130 277.40 2.20490956e+29 -1.00000000e+00 
131 278.21 3.83489953e+27 -1.00000000e+00 
132 279.01 7.52314855e+25 -1.00000000e+00 
133 279.82 1.64971495e+24 -1.00000000e+00 
134 280.63 3.47351876e+22 -1.00000000e+00 
135 281.43 8.13476264e+20 -1.00000000e+00 
136 282.24 2.58609203e+19 -1.00000000e+00 
137 283.05 1.13939641e+18 -1.00000000e+00 
138 283.86 5.66954967e+16 2.05467112e+17 
139 284.66 2.92576581e+15 1.04091088e+16 
140 285.47 1.84404706e+14 6.41295995e+14 
141 286.28 1.60851495e+13 5.46240945e+13 
142 287.09 1.55417182e+12 5.15694133e+12 
143 287.89 1.53395380e+11 4.94498120e+11 
144 288.70 1.78228285e+10 5.52365588e+10 
145 289.51 2.68754662e+09 8.03812710e+09 
146 290.32 4.81719008e+08 1.37201216e+09 
147 291.12 9.47025120e+07 2.55812352e+08 
148 291.93 2.04209000e+07 5.20019440e+07 
149 292.74 5.11169400e+06 1.21283980e+07 
150 293.55 1.49233400e+06 3.28974000e+06 
151 294.35 4.85742125e+05 9.82651438e+05 
152 295.16 1.77236922e+05 3.24965812e+05 
153 295.97 7.07050703e+04 1.17809781e+05 
154 296.78 3.06575312e+04 4.59499961e+04 
155 297.58 1.42107471e+04 1.88731621e+04 
156 298.39 7.31341357e+03 8.63450391e+03 
157 299.20 4.09367407e+03 4.34055566e+03 
158 300.01 2.44168262e+03 2.33747803e+03 
159 300.81 1.53196777e+03 1.30126367e+03 
160 301.62 1.01227039e+03 7.78936707e+02 
161 302.43 6.99980530e+02 4.89494385e+02 
162 303.24 5.06498505e+02 3.21680023e+02 
163 304.04 3.80843842e+02 2.19519485e+02 
164 304.85 2.91038513e+02 1.53380402e+02 
165 305.66 2.28803635e+02 1.09441017e+02 
166 306.47 1.84822830e+02 8.10337296e+01 
167 307.28 1.52367355e+02 6.15956268e+01 
168 308.08 1.29499573e+02 4.90549622e+01 
169 308.89 1.11621330e+02 3.98930817e+01 
170 309.70 9.59734039e+01 3.15848293e+01 
171 310.51 8.46007233e+01 2.59450226e+01 
172 311.32 7.55003281e+01 2.18411961e+01 
173 312.12 6.68091812e+01 1.78419209e+01 
174 312.93 6.02497864e+01 1.53308926e+01 
175 313.74 5.53954544e+01 1.31000948e+01 
176 314.55 5.12441063e+01 1.17259331e+01 
177 315.36 4.79273911e+01 1.02874804e+01 
178 316.16 4.53125305e+01 9.43522263e+00 
179 316.97 4.28104324e+01 8.51408958e+00 
180 317.78 4.06230888e+01 7.79000092e+00 
181 318.59 3.85518456e+01 6.92240620e+00 
182 319.40 3.70946274e+01 6.54861689e+00 
183 320.20 3.57115211e+01 6.15012741e+00 
184 321.01 3.41153336e+01 5.51710033e+00 
185 321.82 3.31812172e+01 5.25953579e+00 
186 322.63 3.23300552e+01 4.90612698e+00 
187 323.43 3.11218109e+01 4.73334551e+00 
188 324.24 3.02577324e+01 4.31853867e+00 
189 325.05 2.97027035e+01 4.11964703e+00 
190 325.86 2.89617863e+01 4.02053547e+00 
191 326.67 2.80553150e+01 3.76044178e+00 
192 327.48 2.78153744e+01 3.61203003e+00 
193 328.28 2.73913498e+01 3.48267007e+00 
194 329.09 2.67944107e+01 3.29920292e+00 
195 329.90 2.64650307e+01 3.16133833e+00 
196 330.71 2.61937771e+01 3.08346415e+00 
197 331.52 2.59350166e+01 3.00755763e+00 
198 332.32 2.55051727e+01 2.88343310e+00 
199 333.13 2.53574123e+01 2.85545611e+00 
200 333.94 2.52982979e+01 2.84077024e+00 
201 334.75 2.52012196e+01 2.64643121e+00 
202 335.55 2.53538208e+01 2.55948305e+00 
203 336.36 2.58848991e+01 2.53955269e+00 
204 337.17 2.68019295e+01 2.46717834e+00 
205 337.98 2.80774975e+01 2.50323772e+00 
206 338.79 2.98201237e+01 2.31562567e+00 
207 339.60 3.21334496e+01 2.37589002e+00 
208 340.40 3.44681168e+01 2.29476261e+00 
209 341.21 3.65361977e+01 2.28943944e+00 
210 342.02 3.85894279e+01 2.16612792e+00 
211 342.83 4.10539627e+01 2.19332814e+00 
212 343.63 4.24882050e+01 2.07722020e+00 
213 344.44 4.29280128e+01 1.93734872e+00 
214 345.25 4.46255112e+01 1.88553023e+00 
215 346.06 4.74538269e+01 1.89396441e+00 
216 346.87 4.94786644e+01 1.78605056e+00 
217 347.67 5.08418274e+01 1.83868945e+00 
218 348.48 5.21132278e+01 1.70649958e+00 
219 349.29 5.34771461e+01 1.66974545e+00 
220 350.10 5.64116402e+01 1.71705818e+00 
221 350.90 5.98146095e+01 1.52631569e+00 
222 351.71 6.10752106e+01 1.61420512e+00 
223 352.52 6.12523689e+01 1.46728492e+00 
224 353.33 6.36145134e+01 1.51998329e+00 
225 354.14 6.84707489e+01 1.45215225e+00 
226 354.94 7.23456116e+01 1.42981780e+00 
227 355.75 7.31962204e+01 1.39828467e+00 
228 356.56 7.13592072e+01 1.41173589e+00 
229 357.37 6.83582001e+01 1.33222401e+00 
230 358.18 6.63219452e+01 1.24454045e+00 
231 358.98 6.86426468e+01 1.25786543e+00 
232 359.79 7.71899490e+01 1.27019000e+00 
233 360.60 8.22112350e+01 1.18156147e+00 
234 361.41 8.11628418e+01 1.28864503e+00 
235 362.21 8.25170746e+01 1.20764065e+00 
236 363.02 8.69182053e+01 1.13023937e+00 
237 363.83 9.01590500e+01 1.12232268e+00 
238 364.64 9.24571686e+01 1.00656378e+00 
239 365.44 9.79011078e+01 9.68364894e-01 
240 366.25 1.05306107e+02 9.88365829e-01 
241 367.06 1.08858192e+02 1.10187280e+00 
242 367.87 1.07965340e+02 1.07466102e+00 
243 368.67 1.07345078e+02 1.04890668e+00 
244 369.48 1.10923096e+02 1.00788987e+00 
245 370.29 1.14055687e+02 1.07421553e+00 
246 371.10 1.13672356e+02 1.01578426e+00 
247 371.90 1.12298187e+02 9.22650099e-01 
248 372.71 1.08831184e+02 9.92497325e-01 
249 373.52 1.03346329e+02 1.12568831e+00 
250 374.33 1.00106598e+02 9.85237002e-01 
251 375.13 1.03308731e+02 1.08910024e+00 
252 375.94 1.10740067e+02 9.35874224e-01 
253 376.75 1.18424026e+02 9.76892114e-01 
254 377.56 1.28136505e+02 1.03922760e+00 
255 378.36 1.36552307e+02 1.04745317e+00 
256 379.17 1.33262405e+02 1.06914830e+00 
257 379.98 1.27180374e+02 1.06699109e+00 
258 380.78 1.28544434e+02 1.08756554e+00 
259 381.59 1.25015198e+02 1.04299784e+00 
260 382.40 1.10692970e+02 1.04918170e+00 
261 383.20 9.80595627e+01 9.51619923e-01 
262 384.01 9.81624603e+01 9.53335822e-01 
263 384.82 1.09922638e+02 9.22080219e-01 
264 385.63 1.18290726e+02 1.02913475e+00 
265 386.43 1.19582703e+02 1.04211831e+00 
266 387.24 1.20414879e+02 9.48944807e-01 
267 388.05 1.20787788e+02 1.05275106e+00 
268 388.85 1.23600281e+02 9.82514739e-01 
269 389.66 1.32562790e+02 1.04145098e+00 
270 390.47 1.42376251e+02 1.06270278e+00 
271 391.27 1.47836227e+02 1.08858442e+00 
272 392.08 1.42562027e+02 1.12622333e+00 
273 392.89 1.20867661e+02 1.01754451e+00 
274 393.69 1.02713646e+02 8.88861179e-01 
275 394.50 1.12138855e+02 8.05804968e-01 
276 395.31 1.33387039e+02 9.17138636e-01 
277 396.11 1.34221970e+02 8.30995321e-01 
278 396.92 1.19303978e+02 8.69103312e-01 
279 397.73 1.25028801e+02 6.99723423e-01 
280 398.53 1.54726181e+02 7.54436672e-01 
281 399.34 1.78572144e+02 7.35943794e-01 
282 400.15 1.89778992e+02 8.25935185e-01 
283 400.95 1.96119965e+02 7.69168377e-01 
284 401.76 2.02373398e+02 7.33390450e-01 
285 402.57 2.06124847e+02 7.29290009e-01 
286 403.37 2.05646484e+02 6.74062729e-01 
287 404.18 2.04934402e+02 7.22577035e-01 
288 404.99 2.04579025e+02 7.36227632e-01 
289 405.79 2.04140076e+02 7.08614349e-01 
290 406.60 2.03700256e+02 7.03878224e-01 
291 407.40 2.06219635e+02 7.32566774e-01 
292 408.21 2.13483978e+02 8.05277646e-01 
293 409.02 2.20477798e+02 8.41312587e-01 
294 409.82 2.18735260e+02 9.03074443e-01 
295 410.63 2.15601196e+02 8.72727096e-01 
296 411.43 2.23336868e+02 1.11883271e+00 
297 412.24 2.32343979e+02 1.18991303e+00 
298 413.05 2.33366440e+02 1.24845934e+00 
299 413.85 2.32184906e+02 1.21445477e+00 
300 414.66 2.31692078e+02 1.41538537e+00 
301 415.46 2.31199646e+02 1.33543468e+00 
302 416.27 2.31686218e+02 1.39746904e+00 
303 417.08 2.29777435e+02 1.38666952e+00 
304 417.88 2.24290634e+02 1.47875559e+00 
305 418.69 2.21085876e+02 1.32392752e+00 
306 419.49 2.20099457e+02 1.25493264e+00 
307 420.30 2.20710983e+02 1.23472214e+00 
308 421.11 2.24158966e+02 1.14646566e+00 
309 421.91 2.25017227e+02 1.09773636e+00 
310 422.72 2.20353149e+02 1.02964997e+00 
311 423.52 2.18257507e+02 7.87094176e-01 
312 424.33 2.21354095e+02 7.83766568e-01 
313 425.13 2.24058228e+02 6.63098335e-01 
314 425.94 2.25463470e+02 5.57578921e-01 
315 426.74 2.26734192e+02 5.68063974e-01 
316 427.55 2.27738617e+02 4.81663167e-01 
317 428.36 2.29539139e+02 4.10763085e-01 
318 429.16 2.26943542e+02 4.80926156e-01 
319 429.96 2.16816544e+02 4.28803682e-01 
320 430.77 2.12563690e+02 3.11035872e-01 
321 431.58 2.31987091e+02 3.82073671e-01 
322 432.38 2.62656097e+02 4.10870612e-01 
323 433.19 2.81141815e+02 5.42609572e-01 
324 433.99 2.88095398e+02 4.87951726e-01 
325 434.80 2.97408142e+02 5.53241789e-01 
326 435.60 3.15979706e+02 5.46917737e-01 
327 436.41 3.35178558e+02 6.61344230e-01 
328 437.21 3.43596161e+02 6.42198384e-01 
329 438.02 3.40655243e+02 8.73312831e-01 
330 438.82 3.39292755e+02 9.24147725e-01 
331 439.63 3.49421356e+02 9.76855278e-01 
332 440.43 3.65158386e+02 8.75540316e-01 
333 441.24 3.81987000e+02 1.08920038e+00 
334 442.04 4.00195007e+02 1.13098836e+00 
335 442.85 4.13942749e+02 1.00286984e+00 
336 443.65 4.22430389e+02 1.14245164e+00 
337 444.45 4.28962036e+02 1.17977810e+00 
338 445.26 4.31090790e+02 1.19281197e+00 
339 446.06 4.31254150e+02 1.17097473e+00 
340 446.87 4.40111969e+02 1.04255235e+00 
341 447.67 4.56450989e+02 1.27071762e+00 
342 448.48 4.68600067e+02 1.19421458e+00 
343 449.28 4.77048218e+02 1.14235032e+00 
344 450.09 4.88925964e+02 1.10427117e+00 
345 450.89 5.01419464e+02 1.09893882e+00 
346 451.70 5.03851288e+02 1.21619081e+00 
347 452.50 4.94519958e+02 1.21204531e+00 
348 453.30 4.85905396e+02 9.97596741e-01 
349 454.11 4.87591309e+02 1.05362928e+00 
350 454.91 4.95232330e+02 9.96800542e-01 
351 455.72 5.03617523e+02 9.83971775e-01 
352 456.52 5.12989624e+02 1.03737223e+00 
353 457.32 5.19583618e+02 1.06468797e+00 
354 458.13 5.19717041e+02 8.27893972e-01 
355 458.93 5.17680359e+02 9.18608844e-01 
356 459.74 5.19200256e+02 9.65175033e-01 
357 460.54 5.25419189e+02 1.01393223e+00 
358 461.34 5.34393555e+02 9.76928532e-01 
359 462.15 5.41626831e+02 9.42053497e-01 
360 462.95 5.44581177e+02 8.31936300e-01 
361 463.76 5.42238159e+02 1.02666926e+00 
362 464.56 5.37695312e+02 9.78837788e-01 
363 465.36 5.35337585e+02 9.85991776e-01 
364 466.17 5.35320801e+02 9.27236438e-01 
365 466.97 5.34692871e+02 8.50668669e-01 
366 467.77 5.36647461e+02 1.02575493e+00 
367 468.58 5.41715576e+02 8.77420425e-01 
368 469.38 5.44184204e+02 9.21769202e-01 
369 470.18 5.42287781e+02 1.05383205e+00 
370 470.99 5.43825745e+02 1.00307274e+00 
371 471.79 5.53131714e+02 1.01985383e+00 
372 472.59 5.62677063e+02 1.11756289e+00 
373 473.40 5.66771301e+02 1.00824916e+00 
374 474.20 5.70755249e+02 1.10995924e+00 
375 475.00 5.74990906e+02 9.08874869e-01 
376 475.81 5.76088440e+02 1.02370417e+00 
377 476.61 5.76709839e+02 1.04329741e+00 
378 477.41 5.82784790e+02 1.14453518e+00 
379 478.21 5.90102112e+02 1.06391728e+00 
380 479.02 5.94477112e+02 1.01940060e+00 
381 479.82 5.97444763e+02 9.73505795e-01 
382 480.62 6.00144348e+02 9.72283423e-01 
383 481.43 6.02568420e+02 1.09420276e+00 
384 482.23 6.03907715e+02 9.98025298e-01 
385 483.03 6.01597656e+02 1.05970657e+00 
386 483.84 5.96334229e+02 1.08344781e+00 
387 484.64 5.85016846e+02 1.04868627e+00 
388 485.44 5.61990784e+02 1.09165716e+00 
389 486.24 5.37685547e+02 9.49267566e-01 
390 487.04 5.33194092e+02 9.07464147e-01 
391 487.85 5.49466614e+02 9.80647147e-01 
392 488.65 5.68725098e+02 1.05842865e+00 
393 489.45 5.83017822e+02 1.12223375e+00 
394 490.26 5.92619934e+02 1.03126812e+00 
395 491.06 5.93277100e+02 1.23384929e+00 
396 491.86 5.86397217e+02 1.15527570e+00 
397 492.66 5.83069580e+02 1.12020206e+00 
398 493.46 5.88215027e+02 1.09419179e+00 
399 494.27 5.96421753e+02 1.24942005e+00 
400 495.07 6.02488342e+02 1.18835437e+00 
401 495.87 6.04563171e+02 1.30124831e+00 
402 496.67 6.04603638e+02 1.18751311e+00 
403 497.48 6.01893738e+02 1.21569550e+00 
404 498.28 5.96179993e+02 1.18001366e+00 
405 499.08 5.91512634e+02 1.25486875e+00 
406 499.88 5.87349243e+02 1.34883416e+00 
407 500.68 5.80798340e+02 1.29098165e+00 
408 501.48 5.74502991e+02 1.24533498e+00 
409 502.29 5.74979187e+02 1.04455328e+00 
410 503.09 5.79236267e+02 1.17763889e+00 
411 503.89 5.82164307e+02 9.92083490e-01 
412 504.69 5.86429382e+02 1.20068586e+00 
413 505.49 5.93892395e+02 1.11844325e+00 
414 506.29 5.99417419e+02 1.08273697e+00 
415 507.09 5.96913208e+02 1.02925038e+00 
416 507.90 5.91486694e+02 1.06781662e+00 
417 508.70 5.90199890e+02 1.14332938e+00 
418 509.50 5.91914429e+02 1.26038349e+00 
419 510.30 5.93033447e+02 1.23135471e+00 
420 511.10 5.93771973e+02 1.31528115e+00 
421 511.90 5.93100769e+02 1.28542578e+00 
422 512.71 5.87963318e+02 1.31012523e+00 
423 513.51 5.80169678e+02 1.27938271e+00 
424 514.31 5.74272522e+02 1.33993042e+00 
425 515.11 5.71269409e+02 1.25792301e+00 
426 515.91 5.61898987e+02 1.22359443e+00 
427 516.71 5.43750244e+02 1.16973352e+00 
428 517.51 5.28931702e+02 1.12836325e+00 
429 518.31 5.27744629e+02 1.03124928e+00 
430 519.11 5.39943481e+02 9.71784055e-01 
431 519.91 5.55057373e+02 1.18629062e+00 
432 520.71 5.67066467e+02 1.16590428e+00 
433 521.52 5.73529053e+02 1.28295147e+00 
434 522.32 5.74714294e+02 1.18543637e+00 
435 523.12 5.76234192e+02 1.16625476e+00 
436 523.92 5.81861206e+02 1.13980484e+00 
437 524.72 5.87252441e+02 1.12773669e+00 
438 525.52 5.84179993e+02 1.21199393e+00 
439 526.32 5.70469116e+02 1.14981663e+00 
440 527.12 5.60386475e+02 1.09894526e+00 
441 527.92 5.65524353e+02 1.03048956e+00 
442 528.72 5.80835754e+02 1.06295764e+00 
443 529.52 5.93849060e+02 1.05436063e+00 
444 530.32 6.00393616e+02 1.12533391e+00 
445 531.12 6.02118652e+02 1.00910282e+00 
446 531.92 5.97084656e+02 1.03204000e+00 
447 532.72 5.88102478e+02 1.07032275e+00 
448 533.52 5.83876709e+02 1.02058566e+00 
449 534.32 5.87186890e+02 9.75731552e-01 
450 535.12 5.94422241e+02 1.12541068e+00 
451 535.92 5.97828369e+02 1.09935904e+00 
452 536.72 5.95293396e+02 1.00646412e+00 
453 537.52 5.92389465e+02 1.05296028e+00 
454 538.32 5.90739197e+02 1.03160751e+00 
455 539.12 5.87562927e+02 1.04681170e+00 
456 539.92 5.81058289e+02 1.00317228e+00 
457 540.72 5.76562317e+02 1.05878472e+00 
458 541.52 5.78126831e+02 1.05032969e+00 
459 542.32 5.82792725e+02 1.16430175e+00 
460 543.12 5.87157776e+02 1.25459182e+00 
461 543.92 5.91075012e+02 1.07767630e+00 
462 544.72 5.94215027e+02 1.13599694e+00 
463 545.52 5.95627991e+02 1.21226871e+00 
464 546.32 5.94707520e+02 1.26608944e+00 
465 547.12 5.92133667e+02 1.20536399e+00 
