% C0 (TOA Count Rate, /ms) for 4STAR VIS spectrometer (1044 channels) derived from /data/sunsat/MLO/May_2022/data_processed/starsuns/4STARB_20220508starsun.mat and recorded on 2022-07-12 18:17:30.
% Data outside 1.8x the STD of 501 nm Langley residuals were screened out. For instrument:4STARB
Pix Wavelength C0 C0err
0 171.23 -1.00000000e+00 -1.00000000e+00 
1 172.04 2.10051462e-02 6.30154391e-04 
2 172.86 2.23212894e-02 6.69638684e-04 
3 173.67 1.87639985e-02 5.62919944e-04 
4 174.48 2.19591784e+00 6.58775344e-02 
5 175.29 2.33082867e+00 6.99248612e-02 
6 176.11 2.32823825e+00 6.98471442e-02 
7 176.92 2.30848122e+00 6.92544356e-02 
8 177.73 2.29579139e+00 6.88737407e-02 
9 178.54 2.28189111e+00 6.84567317e-02 
10 179.36 2.25884938e+00 6.77654818e-02 
11 180.17 2.25756598e+00 6.77269772e-02 
12 180.98 2.24233127e+00 6.72699362e-02 
13 181.79 2.21628356e+00 6.64885044e-02 
14 182.61 2.21623278e+00 6.64869845e-02 
15 183.42 2.20180821e+00 6.60542473e-02 
16 184.23 2.18918896e+00 6.56756684e-02 
17 185.04 2.17850900e+00 6.53552711e-02 
18 185.86 2.17269349e+00 6.51808083e-02 
19 186.67 2.15467548e+00 6.46402612e-02 
20 187.48 2.14833736e+00 6.44501224e-02 
21 188.29 2.12773752e+00 6.38321266e-02 
22 189.11 2.12070990e+00 6.36212975e-02 
23 189.92 2.10718870e+00 6.32156581e-02 
24 190.73 2.09143257e+00 6.27429783e-02 
25 191.54 2.09365153e+00 6.28095493e-02 
26 192.36 2.07174969e+00 6.21524900e-02 
27 193.17 2.06305885e+00 6.18917644e-02 
28 193.98 2.05241275e+00 6.15723841e-02 
29 194.79 2.03567386e+00 6.10702150e-02 
30 195.61 2.03313613e+00 6.09940849e-02 
31 196.42 2.01364851e+00 6.04094565e-02 
32 197.23 2.00472331e+00 6.01416975e-02 
33 198.04 2.00426459e+00 6.01279363e-02 
34 198.86 1.98748040e+00 5.96244112e-02 
35 199.67 1.97635150e+00 5.92905432e-02 
36 200.48 1.97294295e+00 5.91882877e-02 
37 201.29 1.96587539e+00 5.89762628e-02 
38 202.11 1.96001983e+00 5.88005930e-02 
39 202.92 1.94807458e+00 5.84422387e-02 
40 203.73 1.93386602e+00 5.80159798e-02 
41 204.54 1.93939006e+00 5.81817031e-02 
42 205.36 1.93280947e+00 5.79842851e-02 
43 206.17 1.93315792e+00 5.79947382e-02 
44 206.98 1.91775548e+00 5.75326644e-02 
45 207.79 1.90971422e+00 5.72914258e-02 
46 208.61 1.91634226e+00 5.74902669e-02 
47 209.42 1.92823803e+00 5.78471422e-02 
48 210.23 1.93816793e+00 5.81450388e-02 
49 211.04 1.97032368e+00 5.91097102e-02 
50 211.86 2.03363824e+00 6.10091463e-02 
51 212.67 2.13003588e+00 6.39010742e-02 
52 213.48 2.22649026e+00 6.67947084e-02 
53 214.29 2.35471702e+00 7.06415102e-02 
54 215.11 2.49409771e+00 7.48229325e-02 
55 215.92 2.61161947e+00 7.83485845e-02 
56 216.73 2.74757147e+00 8.24271441e-02 
57 217.54 2.86276627e+00 8.58829916e-02 
58 218.35 3.00343370e+00 9.01030079e-02 
59 219.17 3.14398360e+00 9.43195075e-02 
60 219.98 3.31607533e+00 9.94822606e-02 
61 220.79 3.49736023e+00 1.04920805e-01 
62 221.60 3.70103621e+00 1.11031085e-01 
63 222.42 3.95332694e+00 1.18599810e-01 
64 223.23 4.19254398e+00 1.25776321e-01 
65 224.04 4.49696493e+00 1.34908944e-01 
66 224.85 4.82319593e+00 1.44695878e-01 
67 225.67 5.21547604e+00 1.56464279e-01 
68 226.48 5.57559490e+00 1.67267844e-01 
69 227.29 5.24174452e+00 1.57252342e-01 
70 228.10 5.10074663e+00 1.53022394e-01 
71 228.91 5.09025002e+00 1.52707502e-01 
72 229.73 4.89843988e+00 1.46953195e-01 
73 230.54 4.65375280e+00 1.39612585e-01 
74 231.35 4.59201384e+00 1.37760416e-01 
75 232.16 4.51556444e+00 1.35466933e-01 
76 232.97 4.40410185e+00 1.32123053e-01 
77 233.79 4.27313089e+00 1.28193930e-01 
78 234.60 4.15672874e+00 1.24701865e-01 
79 235.41 4.07844543e+00 1.22353360e-01 
80 236.22 3.98466778e+00 1.19540036e-01 
81 237.04 3.96447229e+00 1.18934169e-01 
82 237.85 3.75039530e+00 1.12511858e-01 
83 238.66 3.73634410e+00 1.12090319e-01 
84 239.47 3.51514244e+00 1.05454274e-01 
85 240.28 3.25487185e+00 9.76461545e-02 
86 241.10 3.71111631e+00 1.11333489e-01 
87 241.91 2.72683954e+00 8.18051845e-02 
88 242.72 7.82460976e+00 2.34738290e-01 
89 243.53 -1.00000000e+00 -1.00000000e+00 
90 244.34 -1.00000000e+00 -1.00000000e+00 
91 245.16 -1.00000000e+00 -1.00000000e+00 
92 245.97 -1.00000000e+00 -1.00000000e+00 
93 246.78 -1.00000000e+00 -1.00000000e+00 
94 247.59 -1.00000000e+00 -1.00000000e+00 
95 248.40 -1.00000000e+00 -1.00000000e+00 
96 249.22 -1.00000000e+00 -1.00000000e+00 
97 250.03 -1.00000000e+00 -1.00000000e+00 
98 250.84 -1.00000000e+00 -1.00000000e+00 
99 251.65 -1.00000000e+00 -1.00000000e+00 
100 252.46 -1.00000000e+00 -1.00000000e+00 
101 253.27 -1.00000000e+00 -1.00000000e+00 
102 254.09 -1.00000000e+00 -1.00000000e+00 
103 254.90 -1.00000000e+00 -1.00000000e+00 
104 255.71 -1.00000000e+00 -1.00000000e+00 
105 256.52 -1.00000000e+00 -1.00000000e+00 
106 257.33 -1.00000000e+00 -1.00000000e+00 
107 258.15 -1.00000000e+00 -1.00000000e+00 
108 258.96 -1.00000000e+00 -1.00000000e+00 
109 259.77 -1.00000000e+00 -1.00000000e+00 
110 260.58 -1.00000000e+00 -1.00000000e+00 
111 261.39 -1.00000000e+00 -1.00000000e+00 
112 262.20 -1.00000000e+00 -1.00000000e+00 
113 263.02 -1.00000000e+00 -1.00000000e+00 
114 263.83 -1.00000000e+00 -1.00000000e+00 
115 264.64 -1.00000000e+00 -1.00000000e+00 
116 265.45 -1.00000000e+00 -1.00000000e+00 
117 266.26 2.48355460e+00 7.45066404e-02 
118 267.07 2.77932787e+00 8.33798349e-02 
119 267.89 3.60259485e+00 1.08077846e-01 
120 268.70 3.48374510e+00 1.04512356e-01 
121 269.51 3.67869806e+00 1.10360943e-01 
122 270.32 3.85468364e+00 1.15640506e-01 
123 271.13 3.89497709e+00 1.16849311e-01 
124 271.94 4.06071711e+00 1.21821515e-01 
125 272.75 4.10294485e+00 1.23088345e-01 
126 273.57 4.20181417e+00 1.26054421e-01 
127 274.38 4.27450037e+00 1.28235012e-01 
128 275.19 4.50060320e+00 1.35018095e-01 
129 276.00 4.54768324e+00 1.36430502e-01 
130 276.81 4.73984098e+00 1.42195225e-01 
131 277.62 4.75536156e+00 1.42660841e-01 
132 278.43 5.11149836e+00 1.53344944e-01 
133 279.25 5.22710800e+00 1.56813234e-01 
134 280.06 5.37709332e+00 1.61312804e-01 
135 280.87 5.71921539e+00 1.71576455e-01 
136 281.68 5.56359100e+00 1.66907728e-01 
137 282.49 5.13375568e+00 1.54012665e-01 
138 283.30 4.72940159e+00 1.41882047e-01 
139 284.11 4.42511845e+00 1.32753551e-01 
140 284.93 4.09429884e+00 1.22828968e-01 
141 285.74 3.86534429e+00 1.15960330e-01 
142 286.55 3.63146663e+00 1.08943999e-01 
143 287.36 3.40995741e+00 1.02298722e-01 
144 288.17 3.22412610e+00 9.67237800e-02 
145 288.98 3.06193542e+00 9.18580592e-02 
146 289.79 2.94165373e+00 8.82496089e-02 
147 290.60 2.82387161e+00 8.47161487e-02 
148 291.42 2.71943831e+00 8.15831497e-02 
149 292.23 2.62375188e+00 7.87125528e-02 
150 293.04 2.56148219e+00 7.68444687e-02 
151 293.85 2.51236272e+00 7.53708780e-02 
152 294.66 2.47740889e+00 7.43222684e-02 
153 295.47 2.43988657e+00 7.31965974e-02 
154 296.28 2.42196608e+00 7.26589859e-02 
155 297.09 2.44947577e+00 7.34842718e-02 
156 297.90 2.47516298e+00 7.42548928e-02 
157 298.71 2.54510307e+00 7.63530955e-02 
158 299.53 2.66058278e+00 7.98174813e-02 
159 300.34 2.88584518e+00 8.65753591e-02 
160 301.15 3.22458267e+00 9.67374817e-02 
161 301.96 3.90468049e+00 1.17140412e-01 
162 302.77 4.96829987e+00 1.49048999e-01 
163 303.58 6.32626438e+00 1.89787924e-01 
164 304.39 8.09688950e+00 2.42906690e-01 
165 305.20 1.01899776e+01 3.05699319e-01 
166 306.01 1.27664957e+01 3.82994860e-01 
167 306.82 1.68138084e+01 5.04414260e-01 
168 307.63 2.10883865e+01 6.32651567e-01 
169 308.44 2.37443943e+01 7.12331831e-01 
170 309.26 2.69062195e+01 8.07186604e-01 
171 310.07 3.49008255e+01 1.04702473e+00 
172 310.88 4.44011917e+01 1.33203578e+00 
173 311.69 4.92761726e+01 1.47828519e+00 
174 312.50 5.31308517e+01 1.59392560e+00 
175 313.31 5.75532990e+01 1.72659898e+00 
176 314.12 6.01802902e+01 1.80540872e+00 
177 314.93 6.08631439e+01 1.82589436e+00 
178 315.74 6.30359306e+01 1.89107788e+00 
179 316.55 7.09108963e+01 2.12732697e+00 
180 317.36 7.64016876e+01 2.29205060e+00 
181 318.17 7.65924530e+01 2.29777360e+00 
182 318.98 8.04780350e+01 2.41434097e+00 
183 319.79 8.74669113e+01 2.62400723e+00 
184 320.60 8.93804321e+01 2.68141294e+00 
185 321.41 8.75138397e+01 2.62541509e+00 
186 322.22 8.60756760e+01 2.58227038e+00 
187 323.04 8.77183533e+01 2.63155055e+00 
188 323.85 9.58233337e+01 2.87470007e+00 
189 324.66 1.07638939e+02 3.22916818e+00 
190 325.47 1.21674004e+02 3.65022016e+00 
191 326.28 1.31588760e+02 3.94766283e+00 
192 327.09 1.33332581e+02 3.99997735e+00 
193 327.90 1.33634399e+02 4.00903177e+00 
194 328.71 1.41068283e+02 4.23204851e+00 
195 329.52 1.50152374e+02 4.50457144e+00 
196 330.33 1.49221619e+02 4.47664833e+00 
197 331.14 1.45564178e+02 4.36692524e+00 
198 331.95 1.44983749e+02 4.34951258e+00 
199 332.76 1.44271149e+02 4.32813454e+00 
200 333.57 1.45674652e+02 4.37023973e+00 
201 334.38 1.49735031e+02 4.49205112e+00 
202 335.19 1.47785843e+02 4.43357515e+00 
203 336.00 1.39213257e+02 4.17639780e+00 
204 336.81 1.37419586e+02 4.12258768e+00 
205 337.62 1.45116684e+02 4.35350037e+00 
206 338.43 1.54297897e+02 4.62893677e+00 
207 339.24 1.62976257e+02 4.88928795e+00 
208 340.05 1.67900192e+02 5.03700590e+00 
209 340.86 1.65826706e+02 4.97480106e+00 
210 341.67 1.66728516e+02 5.00185537e+00 
211 342.48 1.70003006e+02 5.10009003e+00 
212 343.29 1.62689514e+02 4.88068533e+00 
213 344.10 1.53087143e+02 4.59261417e+00 
214 344.91 1.57927826e+02 4.73783493e+00 
215 345.72 1.65009613e+02 4.95028830e+00 
216 346.53 1.66791504e+02 5.00374508e+00 
217 347.34 1.65996643e+02 4.97989941e+00 
218 348.15 1.65022369e+02 4.95067120e+00 
219 348.96 1.67377243e+02 5.02131748e+00 
220 349.77 1.77681000e+02 5.33043003e+00 
221 350.58 1.85842987e+02 5.57528973e+00 
222 351.39 1.82554688e+02 5.47664070e+00 
223 352.19 1.78803741e+02 5.36411238e+00 
224 353.00 1.86907928e+02 5.60723782e+00 
225 353.81 2.00930283e+02 6.02790833e+00 
226 354.62 2.05165268e+02 6.15495825e+00 
227 355.43 1.97407227e+02 5.92221689e+00 
228 356.24 1.81275833e+02 5.43827486e+00 
229 357.05 1.64738312e+02 4.94214916e+00 
230 357.86 1.55107422e+02 4.65322256e+00 
231 358.67 1.65115875e+02 4.95347643e+00 
232 359.48 1.89050903e+02 5.67152691e+00 
233 360.29 1.92644791e+02 5.77934361e+00 
234 361.10 1.85175568e+02 5.55526686e+00 
235 361.91 1.90771744e+02 5.72315216e+00 
236 362.72 2.00493958e+02 6.01481867e+00 
237 363.53 2.05215561e+02 6.15646696e+00 
238 364.34 2.11825836e+02 6.35477495e+00 
239 365.14 2.27784729e+02 6.83354187e+00 
240 365.95 2.44247559e+02 7.32742691e+00 
241 366.76 2.46291077e+02 7.38873243e+00 
242 367.57 2.40675934e+02 7.22027779e+00 
243 368.38 2.40712891e+02 7.22138691e+00 
244 369.19 2.50105667e+02 7.50317001e+00 
245 370.00 2.52845047e+02 7.58535147e+00 
246 370.81 2.49714447e+02 7.49143362e+00 
247 371.62 2.44431885e+02 7.33295631e+00 
248 372.43 2.31507782e+02 6.94523335e+00 
249 373.24 2.18269547e+02 6.54808617e+00 
250 374.04 2.15162018e+02 6.45486069e+00 
251 374.85 2.28645935e+02 6.85937786e+00 
252 375.66 2.49199860e+02 7.47599602e+00 
253 376.47 2.70263947e+02 8.10791874e+00 
254 377.28 2.96978210e+02 8.90934658e+00 
255 378.09 3.08221680e+02 9.24665070e+00 
256 378.90 2.94445770e+02 8.83337307e+00 
257 379.71 2.87847473e+02 8.63542461e+00 
258 380.51 2.90488129e+02 8.71464348e+00 
259 381.32 2.69675537e+02 8.09026623e+00 
260 382.13 2.31715302e+02 6.95145893e+00 
261 382.94 2.10662018e+02 6.31986046e+00 
262 383.75 2.25543121e+02 6.76629353e+00 
263 384.56 2.56357544e+02 7.69072628e+00 
264 385.37 2.71607025e+02 8.14821053e+00 
265 386.17 2.75611115e+02 8.26833344e+00 
266 386.98 2.78755035e+02 8.36265087e+00 
267 387.79 2.83341461e+02 8.50024414e+00 
268 388.60 3.00764313e+02 9.02292919e+00 
269 389.41 3.30035461e+02 9.90106392e+00 
270 390.22 3.55226807e+02 1.06568041e+01 
271 391.02 3.62699158e+02 1.08809748e+01 
272 391.83 3.30587982e+02 9.91763973e+00 
273 392.64 2.70640656e+02 8.11921978e+00 
274 393.45 2.52209976e+02 7.56629944e+00 
275 394.26 2.99724365e+02 8.99173069e+00 
276 395.07 3.41008301e+02 1.02302494e+01 
277 395.87 3.22431854e+02 9.67295551e+00 
278 396.68 3.02723145e+02 9.08169460e+00 
279 397.49 3.53665985e+02 1.06099796e+01 
280 398.30 4.37520813e+02 1.31256247e+01 
281 399.11 4.93972717e+02 1.48191814e+01 
282 399.91 5.21829773e+02 1.56548929e+01 
283 400.72 5.41044678e+02 1.62313404e+01 
284 401.53 5.56068176e+02 1.66820450e+01 
285 402.34 5.60280090e+02 1.68084030e+01 
286 403.15 5.56411926e+02 1.66923580e+01 
287 403.95 5.52624451e+02 1.65787334e+01 
288 404.76 5.49086304e+02 1.64725895e+01 
289 405.57 5.45103577e+02 1.63531075e+01 
290 406.38 5.44451782e+02 1.63335533e+01 
291 407.18 5.55073425e+02 1.66522026e+01 
292 407.99 5.74689209e+02 1.72406769e+01 
293 408.80 5.82798889e+02 1.74839668e+01 
294 409.61 5.75365662e+02 1.72609692e+01 
295 410.41 5.81889771e+02 1.74566936e+01 
296 411.22 6.07515137e+02 1.82254543e+01 
297 412.03 6.25487549e+02 1.87646255e+01 
298 412.84 6.30208740e+02 1.89062614e+01 
299 413.64 6.32641235e+02 1.89792366e+01 
300 414.45 6.36847412e+02 1.91054230e+01 
301 415.26 6.43854370e+02 1.93156319e+01 
302 416.07 6.49558289e+02 1.94867477e+01 
303 416.87 6.46082214e+02 1.93824673e+01 
304 417.68 6.40259155e+02 1.92077751e+01 
305 418.49 6.40286011e+02 1.92085800e+01 
306 419.30 6.46110229e+02 1.93833065e+01 
307 420.10 6.59395813e+02 1.97818737e+01 
308 420.91 6.71806702e+02 2.01542015e+01 
309 421.72 6.69597778e+02 2.00879326e+01 
310 422.52 6.61305847e+02 1.98391762e+01 
311 423.33 6.62366821e+02 1.98710041e+01 
312 424.14 6.69115784e+02 2.00734730e+01 
313 424.95 6.72390930e+02 2.01717281e+01 
314 425.75 6.70863342e+02 2.01259003e+01 
315 426.56 6.65947083e+02 1.99784126e+01 
316 427.37 6.60916504e+02 1.98274956e+01 
317 428.17 6.48390747e+02 1.94517231e+01 
318 428.98 6.16640320e+02 1.84992104e+01 
319 429.79 5.81312073e+02 1.74393616e+01 
320 430.59 5.87663452e+02 1.76299038e+01 
321 431.40 6.38867004e+02 1.91660099e+01 
322 432.21 6.89653320e+02 2.06896000e+01 
323 433.01 7.09115051e+02 2.12734509e+01 
324 433.82 7.14861450e+02 2.14458427e+01 
325 434.63 7.33327148e+02 2.19998150e+01 
326 435.43 7.62976379e+02 2.28892918e+01 
327 436.24 7.80761475e+02 2.34228439e+01 
328 437.05 7.72830811e+02 2.31849251e+01 
329 437.85 7.55041992e+02 2.26512604e+01 
330 438.66 7.52321472e+02 2.25696449e+01 
331 439.47 7.67484558e+02 2.30245361e+01 
332 440.27 7.91886780e+02 2.37566032e+01 
333 441.08 8.19223450e+02 2.45767040e+01 
334 441.89 8.42548828e+02 2.52764645e+01 
335 442.69 8.57392029e+02 2.57217617e+01 
336 443.50 8.65585999e+02 2.59675808e+01 
337 444.30 8.66416870e+02 2.59925060e+01 
338 445.11 8.61473755e+02 2.58442135e+01 
339 445.92 8.64435242e+02 2.59330578e+01 
340 446.72 8.81297241e+02 2.64389172e+01 
341 447.53 9.02237488e+02 2.70671253e+01 
342 448.33 9.18559631e+02 2.75567894e+01 
343 449.14 9.34874817e+02 2.80462437e+01 
344 449.95 9.53342651e+02 2.86002789e+01 
345 450.75 9.62390747e+02 2.88717232e+01 
346 451.56 9.51859558e+02 2.85557861e+01 
347 452.36 9.32268799e+02 2.79680634e+01 
348 453.17 9.23294800e+02 2.76988449e+01 
349 453.98 9.27142761e+02 2.78142834e+01 
350 454.78 9.38498901e+02 2.81549664e+01 
351 455.59 9.52560608e+02 2.85768185e+01 
352 456.39 9.63389343e+02 2.89016800e+01 
353 457.20 9.67339844e+02 2.90201950e+01 
354 458.00 9.64382568e+02 2.89314766e+01 
355 458.81 9.62489380e+02 2.88746815e+01 
356 459.61 9.68389771e+02 2.90516930e+01 
357 460.42 9.80256287e+02 2.94076881e+01 
358 461.23 9.92035889e+02 2.97610760e+01 
359 462.03 9.98419189e+02 2.99525757e+01 
360 462.84 9.95383545e+02 2.98615055e+01 
361 463.64 9.86287231e+02 2.95886173e+01 
362 464.45 9.79313965e+02 2.93794193e+01 
363 465.25 9.74616272e+02 2.92384872e+01 
364 466.06 9.72045044e+02 2.91613522e+01 
365 466.86 9.72890869e+02 2.91867256e+01 
366 467.67 9.77037292e+02 2.93111191e+01 
367 468.47 9.81530823e+02 2.94459248e+01 
368 469.28 9.81163513e+02 2.94349060e+01 
369 470.08 9.81679688e+02 2.94503899e+01 
370 470.89 9.91272705e+02 2.97381821e+01 
371 471.69 1.00485553e+03 3.01456661e+01 
372 472.50 1.01472540e+03 3.04417629e+01 
373 473.30 1.02201367e+03 3.06604099e+01 
374 474.11 1.02787109e+03 3.08361320e+01 
375 474.91 1.03149707e+03 3.09449120e+01 
376 475.72 1.03458411e+03 3.10375233e+01 
377 476.52 1.04101880e+03 3.12305641e+01 
378 477.33 1.05020325e+03 3.15060978e+01 
379 478.13 1.05842188e+03 3.17526569e+01 
380 478.93 1.06406116e+03 3.19218349e+01 
381 479.74 1.06868274e+03 3.20604820e+01 
382 480.54 1.07337561e+03 3.22012672e+01 
383 481.35 1.07573364e+03 3.22720108e+01 
384 482.15 1.07358301e+03 3.22074890e+01 
385 482.96 1.06620911e+03 3.19862728e+01 
386 483.76 1.04911206e+03 3.14733620e+01 
387 484.57 1.01562384e+03 3.04687157e+01 
388 485.37 9.75317810e+02 2.92595348e+01 
389 486.17 9.55908142e+02 2.86772442e+01 
390 486.98 9.65623169e+02 2.89686947e+01 
391 487.78 9.92539795e+02 2.97761936e+01 
392 488.59 1.02300684e+03 3.06902046e+01 
393 489.39 1.04567346e+03 3.13702030e+01 
394 490.19 1.05299475e+03 3.15898418e+01 
395 491.00 1.04854297e+03 3.14562893e+01 
396 491.80 1.04297791e+03 3.12893372e+01 
397 492.61 1.04562109e+03 3.13686333e+01 
398 493.41 1.05788806e+03 3.17366409e+01 
399 494.21 1.07157812e+03 3.21473427e+01 
400 495.02 1.08020251e+03 3.24060745e+01 
401 495.82 1.08449438e+03 3.25348320e+01 
402 496.63 1.08202490e+03 3.24607468e+01 
403 497.43 1.07517004e+03 3.22551003e+01 
404 498.23 1.06807446e+03 3.20422325e+01 
405 499.04 1.06019641e+03 3.18058929e+01 
406 499.84 1.05038806e+03 3.15116425e+01 
407 500.64 1.04235950e+03 3.12707844e+01 
408 501.45 1.04202844e+03 3.12608528e+01 
409 502.25 1.04867444e+03 3.14602337e+01 
410 503.05 1.05762219e+03 3.17286663e+01 
411 503.86 1.06911047e+03 3.20733147e+01 
412 504.66 1.08325244e+03 3.24975739e+01 
413 505.46 1.09304089e+03 3.27912254e+01 
414 506.27 1.09487866e+03 3.28463593e+01 
415 507.07 1.08938196e+03 3.26814575e+01 
416 507.87 1.08526160e+03 3.25578461e+01 
417 508.68 1.08448877e+03 3.25346642e+01 
418 509.48 1.08725635e+03 3.26176910e+01 
419 510.28 1.09087695e+03 3.27263069e+01 
420 511.08 1.09094238e+03 3.27282715e+01 
421 511.89 1.08508362e+03 3.25525093e+01 
422 512.69 1.07429370e+03 3.22288094e+01 
423 513.49 1.06351440e+03 3.19054317e+01 
424 514.30 1.05499548e+03 3.16498642e+01 
425 515.10 1.03864819e+03 3.11594467e+01 
426 515.90 1.01039301e+03 3.03117905e+01 
427 516.70 9.83742920e+02 2.95122871e+01 
428 517.51 9.72405762e+02 2.91721725e+01 
429 518.31 9.83318481e+02 2.94995537e+01 
430 519.11 1.00824457e+03 3.02473373e+01 
431 519.91 1.03258167e+03 3.09774494e+01 
432 520.72 1.04975964e+03 3.14927902e+01 
433 521.52 1.05711597e+03 3.17134781e+01 
434 522.32 1.06238257e+03 3.18714771e+01 
435 523.12 1.07209229e+03 3.21627693e+01 
436 523.93 1.08073364e+03 3.24220085e+01 
437 524.73 1.07867480e+03 3.23602448e+01 
438 525.53 1.06138550e+03 3.18415642e+01 
439 526.33 1.04407410e+03 3.13222237e+01 
440 527.13 1.04450586e+03 3.13351765e+01 
441 527.94 1.06148572e+03 3.18445721e+01 
442 528.74 1.08381921e+03 3.25145760e+01 
443 529.54 1.10159216e+03 3.30477638e+01 
444 530.34 1.10891248e+03 3.32673759e+01 
445 531.14 1.10377527e+03 3.31132584e+01 
446 531.95 1.09176831e+03 3.27530479e+01 
447 532.75 1.08326538e+03 3.24979630e+01 
448 533.55 1.08355884e+03 3.25067635e+01 
449 534.35 1.09152258e+03 3.27456779e+01 
450 535.15 1.09750781e+03 3.29252357e+01 
451 535.95 1.09629797e+03 3.28889389e+01 
452 536.76 1.09198755e+03 3.27596283e+01 
453 537.56 1.08788635e+03 3.26365891e+01 
454 538.36 1.08062549e+03 3.24187660e+01 
455 539.16 1.07026318e+03 3.21078949e+01 
456 539.96 1.06239880e+03 3.18719635e+01 
457 540.76 1.06086035e+03 3.18258114e+01 
458 541.56 1.06505249e+03 3.19515743e+01 
459 542.36 1.07272180e+03 3.21816559e+01 
460 543.17 1.07971692e+03 3.23915062e+01 
461 543.97 1.08415112e+03 3.25245323e+01 
462 544.77 1.08679651e+03 3.26038971e+01 
463 545.57 1.08501843e+03 3.25505524e+01 
464 546.37 1.07994702e+03 3.23984108e+01 
465 547.17 1.07379590e+03 3.22138786e+01 
466 547.97 1.07132166e+03 3.21396484e+01 
467 548.77 1.07181567e+03 3.21544685e+01 
468 549.57 1.07344470e+03 3.22033424e+01 
