% C0 (TOA Count Rate, /ms) for 4STAR VIS spectrometer (1044 channels) derived from (SEE Original files for sources) and recorded on 2024-10-04 10:07:59.
% Langley at MLO outside 1.8x the STD of 501 nm Langley residuals were screened out. 
% Including only the good days at MLO
% Averages of c0 from multiple days including: , TMF -go-od, TMF -go-od, TMF -go-od, TMF -go-od. See the list of files below
% 20240710_VIS_C0_4STARB_refined_ground_langley_am.dat
% 20240714_VIS_C0_4STARB_refined_ground_langley_am.dat
% 20240715_VIS_C0_4STARB_refined_ground_langley_am.dat
% 20240716_VIS_C0_4STARB_refined_ground_langley_am.dat
Pix Wavelength C0 C0err
0 171.23 -1.00000000e+00 0.00000000e+00 
1 172.04 9.77810693e-03 2.45726073e-03 
2 172.86 1.04002105e-02 2.80184992e-03 
3 173.67 9.01644933e-03 4.25024422e-03 
4 174.48 2.11983618e+00 3.49289963e-01 
5 175.29 2.27274305e+00 4.10275267e-01 
6 176.11 2.28283811e+00 4.26251598e-01 
7 176.92 2.27170152e+00 4.26405242e-01 
8 177.73 2.24996531e+00 4.37389419e-01 
9 178.54 2.22996247e+00 4.47464396e-01 
10 179.36 2.19005531e+00 4.27597146e-01 
11 180.17 2.16817337e+00 4.11773856e-01 
12 180.98 2.13774175e+00 3.92216582e-01 
13 181.79 2.12407690e+00 3.84139274e-01 
14 182.61 2.08981860e+00 3.69985131e-01 
15 183.42 2.05731147e+00 3.56457916e-01 
16 184.23 2.03232088e+00 3.54018983e-01 
17 185.04 1.99615323e+00 3.37875176e-01 
18 185.86 1.96468467e+00 3.20670408e-01 
19 186.67 1.92780993e+00 3.13008398e-01 
20 187.48 1.90073699e+00 2.96599027e-01 
21 188.29 1.87459508e+00 2.92182838e-01 
22 189.11 1.84322483e+00 2.80458704e-01 
23 189.92 1.81753010e+00 2.67950673e-01 
24 190.73 1.78394666e+00 2.62262770e-01 
25 191.54 1.75775051e+00 2.55570088e-01 
26 192.36 1.73217797e+00 2.43291517e-01 
27 193.17 1.71414876e+00 2.33537562e-01 
28 193.98 1.68821421e+00 2.29663235e-01 
29 194.79 1.66303900e+00 2.14895406e-01 
30 195.61 1.63727862e+00 2.11453549e-01 
31 196.42 1.61853603e+00 2.03885045e-01 
32 197.23 1.59739941e+00 1.98978898e-01 
33 198.04 1.57365638e+00 1.90591837e-01 
34 198.86 1.55735588e+00 1.85888755e-01 
35 199.67 1.53792503e+00 1.80427287e-01 
36 200.48 1.52555776e+00 1.75892914e-01 
37 201.29 1.50917754e+00 1.63696261e-01 
38 202.11 1.49268970e+00 1.66664080e-01 
39 202.92 1.47793511e+00 1.61240030e-01 
40 203.73 1.46350255e+00 1.57008421e-01 
41 204.54 1.44929063e+00 1.53573247e-01 
42 205.36 1.43326393e+00 1.45332408e-01 
43 206.17 1.41870946e+00 1.45827203e-01 
44 206.98 1.40707687e+00 1.42726847e-01 
45 207.79 1.39737862e+00 1.34598172e-01 
46 208.61 1.38908711e+00 1.36793820e-01 
47 209.42 1.38285616e+00 1.37517442e-01 
48 210.23 1.37998769e+00 1.33878920e-01 
49 211.04 1.38561398e+00 1.42114716e-01 
50 211.86 1.40226087e+00 1.42128451e-01 
51 212.67 1.43111417e+00 1.53663495e-01 
52 213.48 1.46195141e+00 1.65800816e-01 
53 214.29 1.50644562e+00 1.81744363e-01 
54 215.11 1.54609335e+00 1.98625082e-01 
55 215.92 1.58718827e+00 2.08874226e-01 
56 216.73 1.62687552e+00 2.29413489e-01 
57 217.54 1.66580609e+00 2.46058033e-01 
58 218.35 1.70547256e+00 2.60260249e-01 
59 219.17 1.74706042e+00 2.78783346e-01 
60 219.98 1.79250950e+00 2.94587310e-01 
61 220.79 1.84462482e+00 3.17779480e-01 
62 221.60 1.90550474e+00 3.45669429e-01 
63 222.42 1.96445265e+00 3.70727571e-01 
64 223.23 2.03911525e+00 3.98565830e-01 
65 224.04 2.12303618e+00 4.38355717e-01 
66 224.85 2.20553198e+00 4.73823601e-01 
67 225.67 2.29630858e+00 5.15947360e-01 
68 226.48 2.41771096e+00 5.73244577e-01 
69 227.29 2.53302279e+00 6.23314742e-01 
70 228.10 2.65463879e+00 6.89221110e-01 
71 228.91 2.81091809e+00 7.56972496e-01 
72 229.73 2.96314216e+00 8.32451907e-01 
73 230.54 3.13621035e+00 9.23727611e-01 
74 231.35 3.33490244e+00 1.01764016e+00 
75 232.16 3.53044045e+00 1.11922377e+00 
76 232.97 3.76125044e+00 1.23215777e+00 
77 233.79 4.00175098e+00 1.36221281e+00 
78 234.60 4.27569872e+00 1.51209169e+00 
79 235.41 4.55090809e+00 1.66733369e+00 
80 236.22 4.86455095e+00 1.83093144e+00 
81 237.04 5.21726358e+00 2.03090667e+00 
82 237.85 5.56959957e+00 2.22722880e+00 
83 238.66 5.93765634e+00 2.43192392e+00 
84 239.47 6.32581043e+00 2.65756667e+00 
85 240.28 6.74857986e+00 2.90400955e+00 
86 241.10 7.16020328e+00 3.14482383e+00 
87 241.91 7.59680235e+00 3.41234819e+00 
88 242.72 7.95869160e+00 3.68440245e+00 
89 243.53 8.13821763e+00 3.68153282e+00 
90 244.34 8.16398586e+00 3.62058891e+00 
91 245.16 8.39289451e+00 3.78464824e+00 
92 245.97 8.44174575e+00 3.93415809e+00 
93 246.78 8.64597462e+00 4.12989110e+00 
94 247.59 8.95695162e+00 4.33733150e+00 
95 248.40 9.21749415e+00 4.45030722e+00 
96 249.22 9.34440096e+00 4.45408113e+00 
97 250.03 9.45113516e+00 4.44459111e+00 
98 250.84 9.54279251e+00 4.45030711e+00 
99 251.65 9.62872241e+00 4.47748870e+00 
100 252.46 9.67932003e+00 4.49738379e+00 
101 253.27 9.73219492e+00 4.52284348e+00 
102 254.09 9.80033993e+00 4.56628071e+00 
103 254.90 9.82564821e+00 4.59205801e+00 
104 255.71 9.82411016e+00 4.62637794e+00 
105 256.52 9.78921323e+00 4.66921816e+00 
106 257.33 9.76637716e+00 4.72236593e+00 
107 258.15 9.74453592e+00 4.80785189e+00 
108 258.96 9.55395066e+00 4.71417173e+00 
109 259.77 9.29822754e+00 4.55773441e+00 
110 260.58 9.22108741e+00 4.34370265e+00 
111 261.39 9.24982463e+00 4.25509517e+00 
112 262.20 9.17350768e+00 4.23346307e+00 
113 263.02 9.24705338e+00 4.48236477e+00 
114 263.83 8.87300629e+00 4.22193790e+00 
115 264.64 8.50384023e+00 3.94799930e+00 
116 265.45 7.99971962e+00 3.64704526e+00 
117 266.26 7.48387617e+00 3.33771088e+00 
118 267.07 6.98106384e+00 3.05346787e+00 
119 267.89 6.53137094e+00 2.78753734e+00 
120 268.70 6.06112689e+00 2.51709879e+00 
121 269.51 5.65735096e+00 2.29695971e+00 
122 270.32 5.27341789e+00 2.07534390e+00 
123 271.13 4.88714498e+00 1.85944978e+00 
124 271.94 4.53538907e+00 1.67114846e+00 
125 272.75 4.21013880e+00 1.49024919e+00 
126 273.57 3.88852093e+00 1.32796806e+00 
127 274.38 3.59804577e+00 1.17400105e+00 
128 275.19 3.34641603e+00 1.04542460e+00 
129 276.00 3.11577126e+00 9.32231078e-01 
130 276.81 2.90171796e+00 8.29858908e-01 
131 277.62 2.71771958e+00 7.34380970e-01 
132 278.43 2.53222614e+00 6.49768158e-01 
133 279.25 2.38327935e+00 5.76740203e-01 
134 280.06 2.23009813e+00 5.07927377e-01 
135 280.87 2.09220892e+00 4.51429032e-01 
136 281.68 1.97696212e+00 3.93183670e-01 
137 282.49 1.86918053e+00 3.47487842e-01 
138 283.30 1.77438471e+00 3.13536000e-01 
139 284.11 1.69041464e+00 2.76663406e-01 
140 284.93 1.61669138e+00 2.55929270e-01 
141 285.74 1.54923835e+00 2.17148696e-01 
142 286.55 1.48115197e+00 1.96594615e-01 
143 287.36 1.42696214e+00 1.77813820e-01 
144 288.17 1.37590763e+00 1.67470176e-01 
145 288.98 1.33480948e+00 1.54459982e-01 
146 289.79 1.30042103e+00 1.42415898e-01 
147 290.60 1.26046583e+00 1.28326744e-01 
148 291.42 1.22988921e+00 1.19790638e-01 
149 292.23 1.20898357e+00 1.18263855e-01 
150 293.04 1.18342295e+00 1.10842113e-01 
151 293.85 1.16222727e+00 1.05921569e-01 
152 294.66 1.15338066e+00 1.07815770e-01 
153 295.47 1.13786116e+00 1.07549510e-01 
154 296.28 1.12781215e+00 1.06561296e-01 
155 297.09 1.12034205e+00 1.10140430e-01 
156 297.90 1.11894333e+00 1.11251465e-01 
157 298.71 1.12160440e+00 1.12019114e-01 
158 299.53 1.13128812e+00 1.18443229e-01 
159 300.34 1.15258002e+00 1.29020898e-01 
160 301.15 1.19114466e+00 1.45686937e-01 
161 301.96 1.25304490e+00 1.69670643e-01 
162 302.77 1.36157191e+00 2.20370491e-01 
163 303.58 1.49899018e+00 2.73537240e-01 
164 304.39 1.66788516e+00 3.44048067e-01 
165 305.20 1.87519893e+00 4.26773502e-01 
166 306.01 2.12791666e+00 5.30236974e-01 
167 306.82 2.53092950e+00 6.92478058e-01 
168 307.63 2.98377702e+00 8.78709429e-01 
169 308.44 3.34294730e+00 1.02429583e+00 
170 309.26 3.80294085e+00 1.19201022e+00 
171 310.07 4.82924861e+00 1.61043116e+00 
172 310.88 6.15518093e+00 2.15186085e+00 
173 311.69 7.19478964e+00 2.54710926e+00 
174 312.50 8.22178483e+00 2.91045456e+00 
175 313.31 9.38797402e+00 3.29943906e+00 
176 314.12 1.05105251e+01 3.65548560e+00 
177 314.93 1.12686412e+01 3.78956058e+00 
178 315.74 1.23248438e+01 4.04170639e+00 
179 316.55 1.46497223e+01 4.72472193e+00 
180 317.36 1.66884262e+01 5.24890052e+00 
181 318.17 1.76791868e+01 5.36756982e+00 
182 318.98 1.94136653e+01 5.63605393e+00 
183 319.79 2.19943130e+01 6.23457251e+00 
184 320.60 2.35880215e+01 6.44073204e+00 
185 321.41 2.37416878e+01 6.24301525e+00 
186 322.22 2.37219205e+01 6.09044573e+00 
187 323.04 2.51162238e+01 6.09625601e+00 
188 323.85 2.84991331e+01 6.61090568e+00 
189 324.66 3.28840266e+01 7.37791946e+00 
190 325.47 3.85196786e+01 8.17451141e+00 
191 326.28 4.31915216e+01 8.64104882e+00 
192 327.09 4.44388027e+01 8.68725176e+00 
193 327.90 4.48578825e+01 8.53643295e+00 
194 328.71 4.85051317e+01 8.68511587e+00 
195 329.52 5.28686752e+01 9.02721373e+00 
196 330.33 5.29006701e+01 8.90122723e+00 
197 331.14 5.18666649e+01 8.62509550e+00 
198 331.95 5.24189272e+01 8.35363139e+00 
199 332.76 5.26476412e+01 8.09127005e+00 
200 333.57 5.33830948e+01 8.10597193e+00 
201 334.38 5.54342785e+01 8.05658832e+00 
202 335.19 5.53383951e+01 7.83755213e+00 
203 336.00 5.22180824e+01 7.35582207e+00 
204 336.81 5.14058151e+01 7.18642353e+00 
205 337.62 5.47820473e+01 7.31641444e+00 
206 338.43 5.89070988e+01 7.45066021e+00 
207 339.24 6.26282568e+01 7.61485355e+00 
208 340.05 6.50483608e+01 7.65623283e+00 
209 340.86 6.44963475e+01 7.42052358e+00 
210 341.67 6.50553913e+01 7.21890217e+00 
211 342.48 6.68739509e+01 7.24207866e+00 
212 343.29 6.42755356e+01 6.95898078e+00 
213 344.10 6.03256044e+01 6.55648031e+00 
214 344.91 6.22278614e+01 6.46663449e+00 
215 345.72 6.54877357e+01 6.47558598e+00 
216 346.53 6.65008974e+01 6.43037539e+00 
217 347.34 6.63911734e+01 6.25655722e+00 
218 348.15 6.62218055e+01 6.08889820e+00 
219 348.96 6.72910232e+01 6.04195895e+00 
220 349.77 7.16724320e+01 6.04665027e+00 
221 350.58 7.53357868e+01 6.07825060e+00 
222 351.39 7.43561401e+01 5.92147938e+00 
223 352.19 7.28827915e+01 5.76174991e+00 
224 353.00 7.61936722e+01 5.67132844e+00 
225 353.81 8.22959919e+01 5.69980752e+00 
226 354.62 8.45802822e+01 5.66094250e+00 
227 355.43 8.17112789e+01 5.49445618e+00 
228 356.24 7.50825463e+01 5.18780906e+00 
229 357.05 6.80817804e+01 4.88205537e+00 
230 357.86 6.38527460e+01 4.64156854e+00 
231 358.67 6.77030239e+01 4.57756811e+00 
232 359.48 7.80311032e+01 4.72786150e+00 
233 360.29 8.02064056e+01 4.71015445e+00 
234 361.10 7.70881786e+01 4.57160167e+00 
235 361.91 7.93361874e+01 4.42604533e+00 
236 362.72 8.36483479e+01 4.34975698e+00 
237 363.53 8.58006115e+01 4.26799639e+00 
238 364.34 8.86079521e+01 4.18110740e+00 
239 365.14 9.53462830e+01 4.08552071e+00 
240 365.95 1.02642880e+02 4.03659636e+00 
241 366.76 1.03997942e+02 3.94402205e+00 
242 367.57 1.01772909e+02 3.84513350e+00 
243 368.38 1.01666639e+02 3.75088438e+00 
244 369.19 1.05737379e+02 3.60441697e+00 
245 370.00 1.07244365e+02 3.53195015e+00 
246 370.81 1.06011515e+02 3.42912663e+00 
247 371.62 1.03912819e+02 3.28344954e+00 
248 372.43 9.85957128e+01 3.22107208e+00 
249 373.24 9.28503056e+01 3.17313781e+00 
250 374.04 9.11062718e+01 3.04205441e+00 
251 374.85 9.65742989e+01 2.91762742e+00 
252 375.66 1.05420654e+02 2.79329339e+00 
253 376.47 1.14620657e+02 2.78292727e+00 
254 377.28 1.26457197e+02 2.60742784e+00 
255 378.09 1.32107857e+02 2.54839778e+00 
256 378.90 1.26379442e+02 2.62161190e+00 
257 379.71 1.23036611e+02 2.52660869e+00 
258 380.51 1.24341639e+02 2.32560115e+00 
259 381.32 1.16093607e+02 2.37465228e+00 
260 382.13 9.99004116e+01 2.42315672e+00 
261 382.94 9.02795067e+01 2.35955995e+00 
262 383.75 9.60553589e+01 2.16943347e+00 
263 384.56 1.09632963e+02 1.95423870e+00 
264 385.37 1.16812466e+02 1.98423215e+00 
265 386.17 1.18796663e+02 1.96327427e+00 
266 386.98 1.20341122e+02 1.89205787e+00 
267 387.79 1.22137373e+02 1.86440630e+00 
268 388.60 1.29169981e+02 1.72453521e+00 
269 389.41 1.41622543e+02 1.53352190e+00 
270 390.22 1.52826275e+02 1.40161865e+00 
271 391.02 1.56771641e+02 1.29055762e+00 
272 391.83 1.43797505e+02 1.38790241e+00 
273 392.64 1.17726805e+02 1.75401162e+00 
274 393.45 1.08427002e+02 1.72967252e+00 
275 394.26 1.28318231e+02 1.20528422e+00 
276 395.07 1.47299953e+02 9.47054440e-01 
277 395.87 1.40158337e+02 1.25283116e+00 
278 396.68 1.30602863e+02 1.54081199e+00 
279 397.49 1.51532474e+02 1.05484093e+00 
280 398.30 1.88272438e+02 7.22680648e-01 
281 399.11 2.13495682e+02 7.80051594e-01 
282 399.91 2.25976322e+02 8.19217495e-01 
283 400.72 2.34320377e+02 8.63631876e-01 
284 401.53 2.41019367e+02 9.06351864e-01 
285 402.34 2.43094376e+02 8.92138699e-01 
286 403.15 2.41714096e+02 8.77736042e-01 
287 403.95 2.40152683e+02 8.60363189e-01 
288 404.76 2.38752651e+02 8.17587730e-01 
289 405.57 2.37137810e+02 8.39032934e-01 
290 406.38 2.36974102e+02 8.48980331e-01 
291 407.18 2.41529682e+02 8.83166150e-01 
292 407.99 2.50154648e+02 9.63753365e-01 
293 408.80 2.54200405e+02 1.04771079e+00 
294 409.61 2.50799858e+02 9.28458225e-01 
295 410.41 2.53090217e+02 9.56287801e-01 
296 411.22 2.64258606e+02 1.13696904e+00 
297 412.03 2.72304985e+02 1.20696937e+00 
298 412.84 2.74360260e+02 1.17491583e+00 
299 413.64 2.75528053e+02 1.18845331e+00 
300 414.45 2.77467247e+02 1.22426185e+00 
301 415.26 2.80534492e+02 1.25285681e+00 
302 416.07 2.83240158e+02 1.32378985e+00 
303 416.87 2.81915886e+02 1.27433694e+00 
304 417.68 2.79342011e+02 1.21105053e+00 
305 418.49 2.79377876e+02 1.27874813e+00 
306 419.30 2.81935722e+02 1.32537842e+00 
307 420.10 2.87749260e+02 1.38813207e+00 
308 420.91 2.93474892e+02 1.53985914e+00 
309 421.72 2.92717682e+02 1.45440871e+00 
310 422.52 2.89111374e+02 1.31773039e+00 
311 423.33 2.89672462e+02 1.38266051e+00 
312 424.14 2.92888161e+02 1.48526208e+00 
313 424.95 2.94512078e+02 1.45680899e+00 
314 425.75 2.94001266e+02 1.43610185e+00 
315 426.56 2.91643089e+02 1.43123922e+00 
316 427.37 2.89183830e+02 1.46258868e+00 
317 428.17 2.84026276e+02 1.49691154e+00 
318 428.98 2.70658127e+02 1.26381867e+00 
319 429.79 2.54834698e+02 9.31198914e-01 
320 430.59 2.56582646e+02 9.30091415e-01 
321 431.40 2.78830689e+02 1.42411088e+00 
322 432.21 3.01649468e+02 1.73164996e+00 
323 433.01 3.10782555e+02 1.65112902e+00 
324 433.82 3.13347206e+02 1.53367963e+00 
325 434.63 3.21329696e+02 1.64946465e+00 
326 435.43 3.34339913e+02 1.85425877e+00 
327 436.24 3.42605713e+02 1.96972326e+00 
328 437.05 3.39467064e+02 1.84307388e+00 
329 437.85 3.31326447e+02 1.61411214e+00 
330 438.66 3.29585342e+02 1.65010832e+00 
331 439.47 3.35750008e+02 1.79986952e+00 
332 440.27 3.46179856e+02 1.92658423e+00 
333 441.08 3.58318565e+02 2.05605319e+00 
334 441.89 3.68931961e+02 2.17499646e+00 
335 442.69 3.75614845e+02 2.15820495e+00 
336 443.50 3.79177719e+02 2.12116554e+00 
337 444.30 3.79608322e+02 2.15564974e+00 
338 445.11 3.77261185e+02 2.05248506e+00 
339 445.92 3.78316811e+02 2.04571239e+00 
340 446.72 3.85806175e+02 2.23830237e+00 
341 447.53 3.95271385e+02 2.34492772e+00 
342 448.33 4.02490616e+02 2.28678282e+00 
343 449.14 4.09528984e+02 2.30610376e+00 
344 449.95 4.17707962e+02 2.45189285e+00 
345 450.75 4.22087349e+02 2.54520233e+00 
346 451.56 4.17787231e+02 2.42482662e+00 
347 452.36 4.09030151e+02 2.19419727e+00 
348 453.17 4.04776939e+02 2.17512636e+00 
349 453.98 4.06161141e+02 2.29098988e+00 
350 454.78 4.11042366e+02 2.34112111e+00 
351 455.59 4.17522446e+02 2.42251378e+00 
352 456.39 4.22993705e+02 2.48890549e+00 
353 457.20 4.25260437e+02 2.47702898e+00 
354 458.00 4.24095749e+02 2.35268187e+00 
355 458.81 4.22972832e+02 2.27482195e+00 
356 459.61 4.25234405e+02 2.27713065e+00 
357 460.42 4.30525917e+02 2.33975035e+00 
358 461.23 4.35942322e+02 2.39300527e+00 
359 462.03 4.38956238e+02 2.40558556e+00 
360 462.84 4.37911553e+02 2.38514577e+00 
361 463.64 4.33959755e+02 2.28644819e+00 
362 464.45 4.30783104e+02 2.21882946e+00 
363 465.25 4.28779755e+02 2.23182853e+00 
364 466.06 4.27765274e+02 2.23127951e+00 
365 466.86 4.28275055e+02 2.23626702e+00 
366 467.67 4.30192100e+02 2.33755279e+00 
367 468.47 4.31946289e+02 2.43204566e+00 
368 469.28 4.31439812e+02 2.41791689e+00 
369 470.08 4.31302452e+02 2.31431405e+00 
370 470.89 4.35432838e+02 2.38245112e+00 
371 471.69 4.41467148e+02 2.52657817e+00 
372 472.50 4.45977333e+02 2.53076178e+00 
373 473.30 4.49462456e+02 2.49414403e+00 
374 474.11 4.52170914e+02 2.53523237e+00 
375 474.91 4.53595528e+02 2.51325261e+00 
376 475.72 4.54770340e+02 2.37572374e+00 
377 476.52 4.57892006e+02 2.33364744e+00 
378 477.33 4.62595443e+02 2.41324293e+00 
379 478.13 4.66873474e+02 2.39707008e+00 
380 478.93 4.69524635e+02 2.44296157e+00 
381 479.74 4.71426956e+02 2.46137285e+00 
382 480.54 4.73115830e+02 2.47486984e+00 
383 481.35 4.73673172e+02 2.47891190e+00 
384 482.15 4.72273209e+02 2.46148323e+00 
385 482.96 4.68834641e+02 2.40152816e+00 
386 483.76 4.61611068e+02 2.38388972e+00 
387 484.57 4.47364426e+02 2.23103301e+00 
388 485.37 4.29517746e+02 1.86051080e+00 
389 486.17 4.20420990e+02 1.69387977e+00 
390 486.98 4.24556091e+02 1.93281015e+00 
391 487.78 4.36523522e+02 2.15787557e+00 
392 488.59 4.50185227e+02 2.22063114e+00 
393 489.39 4.60656609e+02 2.29848113e+00 
394 490.19 4.64309555e+02 2.33121715e+00 
395 491.00 4.62264328e+02 2.19494973e+00 
396 491.80 4.59463280e+02 2.09218611e+00 
397 492.61 4.60355408e+02 2.13146921e+00 
398 493.41 4.65531334e+02 2.24240548e+00 
399 494.21 4.71436592e+02 2.30473965e+00 
400 495.02 4.75211853e+02 2.23490572e+00 
401 495.82 4.77117203e+02 2.18950001e+00 
402 496.63 4.76000679e+02 2.25402206e+00 
403 497.43 4.72721367e+02 2.19905116e+00 
404 498.23 4.69344879e+02 2.14957027e+00 
405 499.04 4.66041343e+02 2.13666353e+00 
406 499.84 4.62027840e+02 2.12133858e+00 
407 500.64 4.58423889e+02 2.02261213e+00 
408 501.45 4.57933235e+02 2.00315144e+00 
409 502.25 4.60494377e+02 2.11676743e+00 
410 503.05 4.63985550e+02 2.15040283e+00 
411 503.86 4.68423332e+02 2.07877832e+00 
412 504.66 4.74190140e+02 2.16298508e+00 
413 505.46 4.78348351e+02 2.28874788e+00 
414 506.27 4.79126030e+02 2.27578557e+00 
415 507.07 4.76918221e+02 2.08046047e+00 
416 507.87 4.75486969e+02 1.94285440e+00 
417 508.68 4.75957092e+02 1.90579508e+00 
418 509.48 4.77893997e+02 1.83839497e+00 
419 510.28 4.79890724e+02 1.78623925e+00 
420 511.08 4.80037948e+02 1.81104022e+00 
421 511.89 4.77194000e+02 1.76953992e+00 
422 512.69 4.72079285e+02 1.62192562e+00 
423 513.49 4.66988846e+02 1.54327876e+00 
424 514.30 4.63264854e+02 1.64311721e+00 
425 515.10 4.56486877e+02 1.74789228e+00 
426 515.90 4.44004867e+02 1.55881307e+00 
427 516.70 4.31751717e+02 1.32941989e+00 
428 517.51 4.26323075e+02 1.28988847e+00 
429 518.31 4.30622521e+02 1.40774843e+00 
430 519.11 4.41301094e+02 1.57374239e+00 
431 519.91 4.52023079e+02 1.64312223e+00 
432 520.72 4.59653663e+02 1.64879046e+00 
433 521.52 4.62820793e+02 1.58086033e+00 
434 522.32 4.64673103e+02 1.52586307e+00 
435 523.12 4.68483169e+02 1.59214497e+00 
436 523.93 4.72218330e+02 1.69737778e+00 
437 524.73 4.71391785e+02 1.73735880e+00 
438 525.53 4.63626785e+02 1.53927314e+00 
439 526.33 4.55251945e+02 1.32432900e+00 
440 527.13 4.54628037e+02 1.34212741e+00 
441 527.94 4.61708542e+02 1.53917230e+00 
442 528.74 4.71285202e+02 1.67750791e+00 
443 529.54 4.79156715e+02 1.64533946e+00 
444 530.34 4.82925362e+02 1.65229224e+00 
445 531.14 4.81468834e+02 1.58837213e+00 
446 531.95 4.76726540e+02 1.43907599e+00 
447 532.75 4.73205849e+02 1.35725137e+00 
448 533.55 4.73435775e+02 1.35960075e+00 
449 534.35 4.77234123e+02 1.43899147e+00 
450 535.15 4.80256424e+02 1.49909925e+00 
451 535.95 4.79812195e+02 1.46981019e+00 
452 536.76 4.77607376e+02 1.42038627e+00 
453 537.56 4.75476860e+02 1.44552155e+00 
454 538.36 4.72261071e+02 1.42862849e+00 
455 539.16 4.67709244e+02 1.27027452e+00 
456 539.96 4.64196907e+02 1.11025698e+00 
457 540.76 4.63541718e+02 1.12253078e+00 
458 541.56 4.65415260e+02 1.20520756e+00 
459 542.36 4.68764916e+02 1.23720193e+00 
460 543.17 4.72193512e+02 1.24264313e+00 
461 543.97 4.74555046e+02 1.26296170e+00 
462 544.77 4.75901367e+02 1.26435737e+00 
