% C0 (TOA Count Rate, /ms) for 4STAR VIS spectrometer (1044 channels) derived from /data/sunsat/TMF_2024/data_processed/allstarmats/4STARB_20240719starsun.mat and recorded on 2024-07-20 17:03:55.
% Data outside 1.8x the STD of 501 nm Langley residuals were screened out. For instrument:4STARB
Pix Wavelength C0 C0err
0 171.23 -1.00000000e+00 -1.00000000e+00 
1 172.04 -2.86340788e-02 -8.59022373e-04 
2 172.86 4.11742404e-02 1.23522722e-03 
3 173.67 -7.07345083e-03 -2.12203522e-04 
4 174.48 -1.57276864e+08 -4.71830600e+06 
5 175.29 -9.78492480e+07 -2.93547750e+06 
6 176.11 4.14502368e+08 1.24350710e+07 
7 176.92 2.89330016e+08 8.67990000e+06 
8 177.73 4.75729600e+08 1.42718880e+07 
9 178.54 1.07103384e+08 3.21310150e+06 
10 179.36 -1.18905464e+08 -3.56716400e+06 
11 180.17 1.74681584e+08 5.24044750e+06 
12 180.98 3.27531520e+08 9.82594600e+06 
13 181.79 2.56200544e+08 7.68601650e+06 
14 182.61 6.69869440e+08 2.00960840e+07 
15 183.42 -1.60194192e+08 -4.80582600e+06 
16 184.23 -5.04630272e+09 -1.51389088e+08 
17 185.04 2.92837760e+08 8.78513300e+06 
18 185.86 1.26337272e+08 3.79011825e+06 
19 186.67 2.38758640e+08 7.16275900e+06 
20 187.48 1.64276192e+08 4.92828600e+06 
21 188.29 -1.11983112e+08 -3.35949325e+06 
22 189.11 3.34920672e+08 1.00476200e+07 
23 189.92 3.64809344e+08 1.09442800e+07 
24 190.73 -8.71068240e+07 -2.61320475e+06 
25 191.54 3.23759120e+07 9.71277375e+05 
26 192.36 5.95307136e+08 1.78592140e+07 
27 193.17 2.45098288e+08 7.35294850e+06 
28 193.98 -2.72858784e+08 -8.18576350e+06 
29 194.79 5.58715648e+08 1.67614690e+07 
30 195.61 -5.06868600e+07 -1.52060575e+06 
31 196.42 -3.02067040e+07 -9.06201125e+05 
32 197.23 4.02040320e+08 1.20612100e+07 
33 198.04 -1.30512864e+08 -3.91538600e+06 
34 198.86 1.11238520e+08 3.33715550e+06 
35 199.67 -3.81285840e+07 -1.14385750e+06 
36 200.48 1.83199376e+08 5.49598150e+06 
37 201.29 1.63348640e+08 4.90045900e+06 
38 202.11 1.11291200e+08 3.33873600e+06 
39 202.92 -8.62271360e+07 -2.58681400e+06 
40 203.73 -2.45017060e+07 -7.35051188e+05 
41 204.54 -1.37958608e+08 -4.13875825e+06 
42 205.36 -2.93452900e+06 -8.80358672e+04 
43 206.17 5.15576844e+05 1.54673057e+04 
44 206.98 -3.36148920e+07 -1.00844675e+06 
45 207.79 1.29567384e+08 3.88702150e+06 
46 208.61 8.85860147e+09 2.65758048e+08 
47 209.42 1.49518048e+08 4.48554150e+06 
48 210.23 -6.83707238e+09 -2.05112176e+08 
49 211.04 1.00922784e+08 3.02768350e+06 
50 211.86 -2.03439500e+07 -6.10318500e+05 
51 212.67 4.59995505e+10 1.37998656e+09 
52 213.48 1.16366584e+08 3.49099750e+06 
53 214.29 2.31984928e+08 6.95954800e+06 
54 215.11 5.20297040e+07 1.56089112e+06 
55 215.92 -6.50284080e+07 -1.95085225e+06 
56 216.73 -3.10421946e+11 -9.31265843e+09 
57 217.54 7.36273200e+07 2.20881950e+06 
58 218.35 -5.37112080e+07 -1.61133625e+06 
59 219.17 5.97857560e+07 1.79357262e+06 
60 219.98 2.36138820e+07 7.08416438e+05 
61 220.79 -1.19293656e+08 -3.57880975e+06 
62 221.60 3.00054036e+10 9.00162112e+08 
63 222.42 1.23817616e+08 3.71452850e+06 
64 223.23 -2.05321580e+07 -6.15964750e+05 
65 224.04 5.74289320e+07 1.72286800e+06 
66 224.85 2.21392560e+07 6.64177688e+05 
67 225.67 -4.34608360e+07 -1.30382512e+06 
68 226.48 1.06303365e+10 3.18910080e+08 
69 227.29 -3.78917080e+07 -1.13675125e+06 
70 228.10 -6.11829280e+07 -1.83548788e+06 
71 228.91 5.17017480e+07 1.55105250e+06 
72 229.73 1.39229408e+08 4.17688225e+06 
73 230.54 6.96474880e+07 2.08942462e+06 
74 231.35 -7.58124560e+07 -2.27437375e+06 
75 232.16 5.19928080e+07 1.55978425e+06 
76 232.97 9.26163354e+10 2.77849011e+09 
77 233.79 -1.15832448e+08 -3.47497350e+06 
78 234.60 6.46948480e+07 1.94084550e+06 
79 235.41 -1.40925790e+07 -4.22777375e+05 
80 236.22 8.38916424e+10 2.51674931e+09 
81 237.04 6.17704920e+07 1.85311475e+06 
82 237.85 -2.85046560e+07 -8.55139688e+05 
83 238.66 2.28186325e+11 6.84558950e+09 
84 239.47 1.51810464e+08 4.55431400e+06 
85 240.28 1.21121136e+08 3.63363400e+06 
86 241.10 6.15972840e+07 1.84791850e+06 
87 241.91 -5.67209160e+07 -1.70162750e+06 
88 242.72 -5.72207560e+07 -1.71662262e+06 
89 243.53 -6.63485920e+07 -1.99045775e+06 
90 244.34 1.22145768e+08 3.66437300e+06 
91 245.16 1.45888720e+08 4.37666150e+06 
92 245.97 3.79915290e+09 1.13974584e+08 
93 246.78 -1.37850080e+07 -4.13550250e+05 
94 247.59 -9.17285200e+07 -2.75185550e+06 
95 248.40 8.30721600e+07 2.49216475e+06 
96 249.22 -3.99814920e+07 -1.19944475e+06 
97 250.03 2.22212736e+08 6.66638200e+06 
98 250.84 -5.31940480e+07 -1.59582150e+06 
99 251.65 1.35509049e+11 4.06527155e+09 
100 252.46 5.19432995e+11 1.55829903e+10 
101 253.27 1.59537168e+08 4.78611500e+06 
102 254.09 8.21700080e+07 2.46510025e+06 
103 254.90 1.39557968e+08 4.18673900e+06 
104 255.71 -6.15577720e+07 -1.84673312e+06 
105 256.52 1.19245208e+08 3.57735625e+06 
106 257.33 9.64271600e+07 2.89281475e+06 
107 258.15 -3.95670240e+07 -1.18701075e+06 
108 258.96 2.06282300e+07 6.18846875e+05 
109 259.77 2.05645047e+12 6.16935137e+10 
110 260.58 1.40336800e+08 4.21010400e+06 
111 261.39 3.06660416e+08 9.19981200e+06 
112 262.20 1.67151936e+08 5.01455800e+06 
113 263.02 1.09092970e+11 3.27278899e+09 
114 263.83 -6.84715800e+06 -2.05414734e+05 
115 264.64 -5.69928680e+07 -1.70978600e+06 
116 265.45 7.99930240e+07 2.39979075e+06 
117 266.26 1.18697344e+08 3.56092025e+06 
118 267.07 7.99121440e+07 2.39736425e+06 
119 267.89 2.27711408e+08 6.83134200e+06 
120 268.70 7.26809840e+07 2.18042950e+06 
121 269.51 6.02739480e+07 1.80821850e+06 
122 270.32 7.26040480e+07 2.17812150e+06 
123 271.13 1.28603168e+08 3.85809500e+06 
124 271.94 3.00070260e+07 9.00210750e+05 
125 272.75 -1.43843625e+06 -4.31530859e+04 
126 273.57 -5.25593320e+07 -1.57678000e+06 
127 274.38 -4.16756640e+07 -1.25026988e+06 
128 275.19 -6.34916200e+07 -1.90474862e+06 
129 276.00 1.02771464e+08 3.08314400e+06 
130 276.81 8.73148160e+07 2.61944450e+06 
131 277.62 -6.55409250e+06 -1.96622781e+05 
132 278.43 -9.91258800e+07 -2.97377650e+06 
133 279.25 -6.94835520e+07 -2.08450650e+06 
134 280.06 -3.75397960e+07 -1.12619388e+06 
135 280.87 -7.19281680e+07 -2.15784500e+06 
136 281.68 -1.41210638e+06 -4.23631914e+04 
137 282.49 1.17587872e+08 3.52763625e+06 
138 283.30 -2.86450700e+07 -8.59352125e+05 
139 284.11 -2.83016475e+06 -8.49049453e+04 
140 284.93 1.32940496e+08 3.98821500e+06 
141 285.74 5.05574300e+06 1.51672297e+05 
142 286.55 7.57863000e+06 2.27358906e+05 
143 287.36 1.29479096e+08 3.88437300e+06 
144 288.17 5.56989560e+07 1.67096862e+06 
145 288.98 9.12919280e+07 2.73875775e+06 
146 289.79 7.82736000e+07 2.34820800e+06 
147 290.60 4.05472640e+07 1.21641788e+06 
148 291.42 -8.28322960e+07 -2.48496900e+06 
149 292.23 1.54381760e+07 4.63145281e+05 
150 293.04 -2.83037080e+07 -8.49111250e+05 
151 293.85 1.03374536e+08 3.10123600e+06 
152 294.66 -2.10815280e+07 -6.32445812e+05 
153 295.47 8.95814160e+07 2.68744250e+06 
154 296.28 1.24612976e+08 3.73838925e+06 
155 297.09 1.08727736e+08 3.26183200e+06 
156 297.90 8.42121200e+07 2.52636350e+06 
157 298.71 8.85264960e+07 2.65579500e+06 
158 299.53 -1.40279328e+08 -4.20838000e+06 
159 300.34 -6.57828000e+07 -1.97348400e+06 
160 301.15 8.78289040e+07 2.63486700e+06 
161 301.96 2.58968864e+08 7.76906600e+06 
162 302.77 -2.58645536e+08 -7.75936600e+06 
163 303.58 3.88815480e+07 1.16644650e+06 
164 304.39 -6.34318464e+08 -1.90295540e+07 
165 305.20 1.35608742e+09 4.06826240e+07 
166 306.01 4.01519712e+08 1.20455910e+07 
167 306.82 -5.84332032e+09 -1.75299616e+08 
168 307.63 -1.98088013e+09 -5.94264040e+07 
169 308.44 1.07954237e+10 3.23862720e+08 
170 309.26 -2.42174054e+10 -7.26522176e+08 
171 310.07 3.25514404e+10 9.76543232e+08 
172 310.88 -1.20936096e+11 -3.62808294e+09 
173 311.69 1.95605496e+11 5.86816512e+09 
174 312.50 7.31633222e+11 2.19489976e+10 
175 313.31 -9.90082102e+14 -2.97024629e+13 
176 314.12 9.79915178e+11 2.93974548e+10 
177 314.93 5.77401979e+11 1.73220598e+10 
178 315.74 2.38980481e+11 7.16941466e+09 
179 316.55 1.72871266e+15 5.18613778e+13 
180 317.36 -2.67693720e+12 -8.03081175e+10 
181 318.17 1.66359767e+12 4.99079291e+10 
182 318.98 -7.62467582e+11 -2.28740280e+10 
183 319.79 2.28381887e+13 6.85145653e+11 
184 320.60 -2.47988371e+13 -7.43965131e+11 
185 321.41 -1.09935455e+13 -3.29806381e+11 
186 322.22 7.25796258e+12 2.17738871e+11 
187 323.04 -1.93882520e+13 -5.81647532e+11 
188 323.85 -2.52306931e+13 -7.56920812e+11 
189 324.66 -3.81499715e+13 -1.14449921e+12 
190 325.47 2.52421268e+14 7.57263814e+12 
191 326.28 -1.67771841e+14 -5.03315536e+12 
192 327.09 4.85021463e+14 1.45506435e+13 
193 327.90 -1.26746003e+14 -3.80238011e+12 
194 328.71 -2.29816385e+14 -6.89449153e+12 
195 329.52 -3.04657633e+14 -9.13972920e+12 
196 330.33 -1.52908922e+14 -4.58726782e+12 
197 331.14 7.63879865e+14 2.29163957e+13 
198 331.95 -1.24452623e+15 -3.73357858e+13 
199 332.76 3.46244262e+13 1.03873275e+12 
200 333.57 -5.51372970e+14 -1.65411889e+13 
201 334.38 -5.93223975e+16 -1.77967191e+15 
202 335.19 7.40286771e+13 2.22086038e+12 
203 336.00 1.32019792e+15 3.96059361e+13 
204 336.81 -1.55906709e+14 -4.67720104e+12 
205 337.62 -5.32480046e+14 -1.59744010e+13 
206 338.43 -1.13777031e+14 -3.41331096e+12 
207 339.24 1.38731286e+14 4.16193865e+12 
208 340.05 -2.30817824e+15 -6.92453460e+13 
209 340.86 -1.96925324e+14 -5.90775950e+12 
210 341.67 -1.14087351e+14 -3.42262048e+12 
211 342.48 -2.20274659e+15 -6.60823962e+13 
212 343.29 9.52421077e+13 2.85726317e+12 
213 344.10 -1.48610324e+15 -4.45830985e+13 
214 344.91 -1.61470235e+15 -4.84410697e+13 
215 345.72 -2.11511704e+14 -6.34535123e+12 
216 346.53 -7.06561782e+14 -2.11968527e+13 
217 347.34 2.57859602e+14 7.73578818e+12 
218 348.15 2.55374158e+14 7.66122498e+12 
219 348.96 -5.09639779e+14 -1.52891933e+13 
220 349.77 -1.60788181e+15 -4.82364547e+13 
221 350.58 -7.34185199e+14 -2.20255570e+13 
222 351.39 3.30077699e+14 9.90233127e+12 
223 352.19 3.37781864e+14 1.01334563e+13 
224 353.00 -3.27557506e+15 -9.82672495e+13 
225 353.81 8.79551368e+12 2.63865418e+11 
226 354.62 6.22171513e+14 1.86651456e+13 
227 355.43 2.68532361e+14 8.05597086e+12 
228 356.24 -4.08578259e+14 -1.22573480e+13 
229 357.05 -2.65964024e+15 -7.97892097e+13 
230 357.86 -1.33731873e+15 -4.01195621e+13 
231 358.67 -1.88291823e+15 -5.64875483e+13 
232 359.48 8.50101159e+15 2.55030343e+14 
233 360.29 -3.44492750e+14 -1.03347829e+13 
234 361.10 5.94276505e+14 1.78282960e+13 
235 361.91 1.24897716e+15 3.74693157e+13 
236 362.72 1.61700069e+15 4.85100198e+13 
237 363.53 1.45460395e+16 4.36381193e+14 
238 364.34 -6.72616843e+15 -2.01785046e+14 
239 365.14 7.74591513e+14 2.32377444e+13 
240 365.95 1.51405583e+15 4.54216741e+13 
241 366.76 5.17023761e+15 1.55107124e+14 
242 367.57 1.08613032e+15 3.25839099e+13 
243 368.38 1.98960588e+15 5.96881755e+13 
244 369.19 -7.45989863e+15 -2.23796955e+14 
245 370.00 2.48509197e+15 7.45527554e+13 
246 370.81 5.76690305e+15 1.73007088e+14 
247 371.62 6.80869837e+15 2.04260944e+14 
248 372.43 3.36260559e+15 1.00878170e+14 
249 373.24 -6.84989355e+15 -2.05496804e+14 
250 374.04 1.70295722e+15 5.10887157e+13 
251 374.85 1.60038306e+15 4.80114932e+13 
252 375.66 3.45652338e+15 1.03695702e+14 
253 376.47 7.56977356e+15 2.27093208e+14 
254 377.28 1.88231787e+15 5.64695379e+13 
255 378.09 2.33846984e+15 7.01540965e+13 
256 378.90 2.10467807e+16 6.31403411e+14 
257 379.71 1.28108534e+16 3.84325619e+14 
258 380.51 1.17208208e+16 3.51624610e+14 
259 381.32 5.80055734e+15 1.74016724e+14 
260 382.13 1.03914747e+16 3.11744228e+14 
261 382.94 5.17559236e+15 1.55267765e+14 
262 383.75 -2.52156628e+16 -7.56469905e+14 
263 384.56 7.80485819e+14 2.34145742e+13 
264 385.37 1.17448146e+16 3.52344454e+14 
265 386.17 1.34695790e+16 4.04087368e+14 
266 386.98 2.00152219e+16 6.00456628e+14 
267 387.79 3.10097648e+16 9.30292936e+14 
268 388.60 1.43018889e+16 4.29056663e+14 
269 389.41 1.67793291e+16 5.03379864e+14 
270 390.22 5.23614839e+16 1.57084456e+15 
271 391.02 2.10961406e+16 6.32884235e+14 
272 391.83 4.11333012e+16 1.23399900e+15 
273 392.64 5.32084858e+16 1.59625453e+15 
274 393.45 1.56267800e+16 4.68803398e+14 
275 394.26 3.04278118e+16 9.12834364e+14 
276 395.07 4.29630604e+16 1.28889177e+15 
277 395.87 4.65666496e+16 1.39699945e+15 
278 396.68 1.88820034e+16 5.66460083e+14 
279 397.49 1.58019256e+16 4.74057753e+14 
280 398.30 3.15351252e+16 9.46053788e+14 
281 399.11 3.66857380e+16 1.10057215e+15 
282 399.91 1.74527478e+16 5.23582417e+14 
283 400.72 4.34726883e+16 1.30418064e+15 
284 401.53 3.61901933e+16 1.08570579e+15 
285 402.34 2.06973658e+16 6.20921006e+14 
286 403.15 3.53350911e+16 1.06005276e+15 
287 403.95 7.12923941e+16 2.13877184e+15 
288 404.76 3.68696056e+16 1.10608816e+15 
289 405.57 5.67820532e+16 1.70346161e+15 
290 406.38 4.28869578e+16 1.28660872e+15 
291 407.18 5.14581664e+16 1.54374493e+15 
292 407.99 5.33697618e+16 1.60109281e+15 
293 408.80 1.05183698e+17 3.15551086e+15 
294 409.61 9.81995138e+16 2.94598545e+15 
295 410.41 4.64517077e+16 1.39355126e+15 
296 411.22 6.23299741e+16 1.86989924e+15 
297 412.03 4.98639347e+16 1.49591805e+15 
298 412.84 6.70905546e+16 2.01271670e+15 
299 413.64 5.53655730e+16 1.66096720e+15 
300 414.45 7.44502430e+16 2.23350728e+15 
301 415.26 6.31634126e+16 1.89490239e+15 
302 416.07 5.85435439e+16 1.75630635e+15 
303 416.87 8.05472154e+16 2.41641651e+15 
304 417.68 5.45431941e+16 1.63629584e+15 
305 418.49 3.99979223e+16 1.19993763e+15 
306 419.30 3.44839166e+16 1.03451750e+15 
307 420.10 1.46434178e+17 4.39302543e+15 
308 420.91 1.42370280e+17 4.27110848e+15 
309 421.72 5.52229844e+16 1.65668955e+15 
310 422.52 6.27230581e+16 1.88169174e+15 
311 423.33 1.08573105e+17 3.25719314e+15 
312 424.14 9.70336707e+16 2.91101018e+15 
313 424.95 7.42695537e+16 2.22808663e+15 
314 425.75 1.02003163e+17 3.06009494e+15 
315 426.56 1.36575055e+17 4.09725170e+15 
316 427.37 9.73335797e+16 2.92000734e+15 
317 428.17 9.64399430e+16 2.89319842e+15 
318 428.98 1.03645077e+17 3.10935231e+15 
319 429.79 8.35854065e+16 2.50756216e+15 
320 430.59 9.87849350e+16 2.96354810e+15 
321 431.40 1.33954352e+17 4.01863044e+15 
322 432.21 7.93032898e+16 2.37909862e+15 
323 433.01 1.42022036e+17 4.26066098e+15 
324 433.82 8.32646240e+16 2.49793875e+15 
325 434.63 1.37648797e+17 4.12946395e+15 
326 435.43 1.20197348e+17 3.60592032e+15 
327 436.24 9.12486246e+16 2.73745861e+15 
328 437.05 1.09193642e+17 3.27580914e+15 
329 437.85 6.22408793e+16 1.86722643e+15 
330 438.66 8.74285089e+16 2.62285519e+15 
331 439.47 8.61334904e+16 2.58400480e+15 
332 440.27 1.49273925e+17 4.47821771e+15 
333 441.08 1.19985246e+17 3.59955733e+15 
334 441.89 1.52777725e+17 4.58333194e+15 
335 442.69 9.25065003e+16 2.77519500e+15 
336 443.50 1.29880069e+17 3.89640212e+15 
337 444.30 2.44185607e+17 7.32556816e+15 
338 445.11 2.06388744e+17 6.19166243e+15 
339 445.92 1.50688807e+17 4.52066407e+15 
340 446.72 1.95885573e+17 5.87656699e+15 
341 447.53 1.41704371e+17 4.25113125e+15 
342 448.33 2.36684549e+17 7.10053657e+15 
343 449.14 1.46212025e+17 4.38636071e+15 
344 449.95 2.08677446e+17 6.26032339e+15 
345 450.75 1.82837737e+17 5.48513226e+15 
346 451.56 2.53607923e+17 7.60823768e+15 
347 452.36 1.72229941e+17 5.16689827e+15 
348 453.17 2.03322343e+17 6.09967014e+15 
349 453.98 3.06960454e+17 9.20881361e+15 
350 454.78 1.89811012e+17 5.69433045e+15 
351 455.59 2.87057695e+17 8.61173101e+15 
352 456.39 1.98569962e+17 5.95709870e+15 
353 457.20 3.33089317e+17 9.99267950e+15 
354 458.00 3.03910134e+17 9.11730396e+15 
355 458.81 2.91896492e+17 8.75689500e+15 
356 459.61 2.88159217e+17 8.64477649e+15 
357 460.42 2.00345072e+17 6.01035200e+15 
358 461.23 2.53903176e+17 7.61709551e+15 
359 462.03 4.55128029e+17 1.36538406e+16 
360 462.84 4.40177179e+17 1.32053150e+16 
361 463.64 4.54871156e+17 1.36461344e+16 
362 464.45 2.64024576e+17 7.92073735e+15 
363 465.25 2.96841751e+17 8.90525230e+15 
364 466.06 3.10705596e+17 9.32116781e+15 
365 466.86 3.54996674e+17 1.06498997e+16 
366 467.67 3.58263082e+17 1.07478926e+16 
367 468.47 3.23648910e+17 9.70946721e+15 
368 469.28 3.10731675e+17 9.32195056e+15 
369 470.08 4.21728233e+17 1.26518473e+16 
370 470.89 2.75422200e+17 8.26266614e+15 
371 471.69 3.54968258e+17 1.06490482e+16 
372 472.50 2.91893159e+17 8.75679461e+15 
373 473.30 5.21667552e+17 1.56500265e+16 
374 474.11 4.24111081e+17 1.27233327e+16 
375 474.91 5.00302942e+17 1.50090886e+16 
376 475.72 3.34752912e+17 1.00425870e+16 
377 476.52 4.31590887e+17 1.29477265e+16 
378 477.33 3.24752064e+17 9.74256208e+15 
379 478.13 5.80879827e+17 1.74263949e+16 
380 478.93 1.88474040e+17 5.65422137e+15 
381 479.74 3.45344851e+17 1.03603459e+16 
382 480.54 4.51219437e+17 1.35365826e+16 
383 481.35 6.30017345e+17 1.89005211e+16 
384 482.15 4.73465925e+17 1.42039776e+16 
385 482.96 3.28932544e+17 9.86797620e+15 
386 483.76 3.99476214e+17 1.19842859e+16 
387 484.57 5.14305223e+17 1.54291568e+16 
388 485.37 5.37082602e+17 1.61124785e+16 
389 486.17 3.40843932e+17 1.02253175e+16 
390 486.98 6.67589582e+17 2.00276881e+16 
391 487.78 3.62715761e+17 1.08814725e+16 
392 488.59 9.01749343e+17 2.70524807e+16 
393 489.39 5.49850612e+17 1.64955188e+16 
394 490.19 4.30873662e+17 1.29262098e+16 
395 491.00 6.87148794e+17 2.06144643e+16 
396 491.80 5.99803796e+17 1.79941134e+16 
397 492.61 4.78683485e+17 1.43605045e+16 
398 493.41 5.31550822e+17 1.59465242e+16 
399 494.21 3.77458356e+17 1.13237511e+16 
400 495.02 4.08706270e+17 1.22611878e+16 
401 495.82 4.87718894e+17 1.46315663e+16 
402 496.63 6.84710077e+17 2.05413017e+16 
403 497.43 6.08352912e+17 1.82505874e+16 
404 498.23 4.99039191e+17 1.49711758e+16 
405 499.04 8.41315099e+17 2.52394526e+16 
406 499.84 5.49408196e+17 1.64822462e+16 
407 500.64 4.29573867e+17 1.28872158e+16 
408 501.45 1.36379327e+18 4.09137983e+16 
409 502.25 4.80022003e+17 1.44006603e+16 
410 503.05 6.57826468e+17 1.97347949e+16 
411 503.86 7.08639436e+17 2.12591840e+16 
412 504.66 6.97847317e+17 2.09354187e+16 
413 505.46 6.11995662e+17 1.83598706e+16 
414 506.27 7.32141634e+17 2.19642480e+16 
415 507.07 5.65744397e+17 1.69723321e+16 
416 507.87 1.11710684e+18 3.35132046e+16 
417 508.68 6.38500009e+17 1.91550001e+16 
418 509.48 7.16574337e+17 2.14972304e+16 
419 510.28 8.30540297e+17 2.49162091e+16 
420 511.08 6.46751431e+17 1.94025427e+16 
421 511.89 9.08378161e+17 2.72513442e+16 
422 512.69 5.14526980e+17 1.54358097e+16 
423 513.49 6.59859740e+17 1.97957920e+16 
424 514.30 5.42452548e+17 1.62735763e+16 
425 515.10 7.78193167e+17 2.33457951e+16 
426 515.90 4.53459142e+17 1.36037742e+16 
427 516.70 5.95785769e+17 1.78735730e+16 
428 517.51 1.16243187e+18 3.48729569e+16 
429 518.31 4.60345384e+17 1.38103610e+16 
430 519.11 5.13094179e+17 1.53928256e+16 
431 519.91 7.29816030e+17 2.18944806e+16 
432 520.72 7.27262002e+17 2.18178605e+16 
433 521.52 1.32879526e+18 3.98638592e+16 
434 522.32 7.77270471e+17 2.33181140e+16 
435 523.12 1.38617369e+18 4.15852091e+16 
436 523.93 8.29508062e+17 2.48852424e+16 
437 524.73 7.28875673e+17 2.18662712e+16 
438 525.53 6.91157820e+17 2.07347342e+16 
439 526.33 7.05610213e+17 2.11683068e+16 
440 527.13 1.03023868e+18 3.09071602e+16 
441 527.94 1.03117444e+18 3.09352321e+16 
442 528.74 5.82024350e+17 1.74607300e+16 
443 529.54 9.09244851e+17 2.72773459e+16 
444 530.34 1.11226363e+18 3.33679080e+16 
445 531.14 9.30068708e+17 2.79020618e+16 
446 531.95 1.99615869e+18 5.98847591e+16 
447 532.75 7.87168068e+17 2.36150423e+16 
448 533.55 8.16292688e+17 2.44887804e+16 
449 534.35 1.23994441e+18 3.71983338e+16 
450 535.15 9.95487520e+17 2.98646256e+16 
451 535.95 1.14966949e+18 3.44900842e+16 
452 536.76 9.90362765e+17 2.97108829e+16 
453 537.56 7.73390088e+17 2.32017032e+16 
454 538.36 1.11831774e+18 3.35495314e+16 
455 539.16 6.83822565e+17 2.05146772e+16 
456 539.96 8.12762912e+17 2.43828880e+16 
457 540.76 8.99128451e+17 2.69738528e+16 
458 541.56 1.37897464e+18 4.13692410e+16 
459 542.36 7.66189799e+17 2.29856943e+16 
460 543.17 9.21539865e+17 2.76461955e+16 
461 543.97 1.02222909e+18 3.06668718e+16 
462 544.77 8.02617031e+17 2.40785101e+16 
463 545.57 7.42333351e+17 2.22700003e+16 
464 546.37 1.11519087e+18 3.34557251e+16 
465 547.17 9.65084099e+17 2.89525227e+16 
