% C0 (TOA Count Rate, /ms) for 4STAR NIR spectrometer (512 channels) derived from MLOJune2016 and recorded on 2016-08-10 13:45:22.
% Based on mean of c0s from 20160630, 20160702 (AM+PM), 20160703, 20160704, 20160705.  C0err=2*stdev the variability within these 6 langleys.
Pix Wavelength C0 C0err
511 949.79 4.13201666e+00 1.59768378e+00 
510 949.79 4.79374174e+00 7.39571504e-01 
509 951.68 5.19243849e+00 7.50625319e-01 
508 953.57 5.26082373e+00 7.20173818e-01 
507 955.46 5.73160578e+00 7.44195651e-01 
506 957.34 5.85519676e+00 7.37992980e-01 
505 959.22 6.39124087e+00 7.33655642e-01 
504 961.10 6.54472350e+00 6.73425142e-01 
503 962.98 7.06899054e+00 6.45606799e-01 
502 964.85 7.14037442e+00 5.51338071e-01 
501 966.72 7.75072810e+00 4.70942741e-01 
500 968.59 7.85972366e+00 3.68710797e-01 
499 970.45 8.29977659e+00 3.39624655e-01 
498 972.32 8.20736077e+00 3.53907230e-01 
497 974.18 8.54194230e+00 3.96067826e-01 
496 976.04 8.46023555e+00 3.53064748e-01 
495 977.89 8.84129776e+00 3.16182429e-01 
494 979.74 8.78660602e+00 2.42569426e-01 
493 981.59 9.11223134e+00 2.12426440e-01 
492 983.44 9.03520691e+00 1.26123493e-01 
491 985.29 9.31191968e+00 1.12138847e-01 
490 987.13 9.14379862e+00 7.68244222e-02 
489 988.97 9.40163935e+00 8.14312149e-02 
488 990.81 9.20019992e+00 8.18474819e-02 
487 992.65 9.38202710e+00 7.48048535e-02 
486 994.48 9.16464537e+00 5.62991066e-02 
485 996.31 9.33337018e+00 7.31331829e-02 
484 998.14 9.08219623e+00 7.21587556e-02 
483 999.97 9.24723165e+00 8.52320841e-02 
482 1001.79 8.97638559e+00 9.83105757e-02 
481 1003.62 9.07144321e+00 1.12296511e-01 
480 1005.44 8.84505337e+00 1.30782801e-01 
479 1007.25 9.10576266e+00 1.36881052e-01 
478 1009.07 8.87343958e+00 1.33273585e-01 
477 1010.88 9.03734477e+00 1.37398960e-01 
476 1012.69 8.75525603e+00 9.73712065e-02 
475 1014.50 8.88720917e+00 1.15808039e-01 
474 1016.31 8.65001414e+00 1.02370503e-01 
473 1018.11 8.81611766e+00 1.06100684e-01 
472 1019.91 8.57144414e+00 9.91377911e-02 
471 1021.71 8.74383852e+00 1.04879539e-01 
470 1023.51 8.49798644e+00 9.79471707e-02 
469 1025.30 8.66815350e+00 9.01333262e-02 
468 1027.09 8.53169868e+00 7.20308216e-02 
467 1028.88 8.67802317e+00 6.90503734e-02 
466 1030.67 8.49139583e+00 4.06117122e-02 
465 1032.46 8.67285541e+00 5.17987801e-02 
464 1034.24 8.51399867e+00 6.21188054e-02 
463 1036.02 8.73304478e+00 6.63616632e-02 
462 1037.80 8.59710810e+00 9.22789328e-02 
461 1039.58 8.82387026e+00 8.69230198e-02 
460 1041.35 8.65439087e+00 1.10665114e-01 
459 1043.12 8.82746122e+00 1.07204208e-01 
458 1044.89 8.73887100e+00 1.11198831e-01 
457 1046.66 8.98560955e+00 1.13728537e-01 
456 1048.43 8.93025760e+00 1.07041884e-01 
455 1050.19 9.18272783e+00 1.25947784e-01 
454 1051.95 9.02304634e+00 1.15265521e-01 
453 1053.71 9.26894467e+00 1.13868527e-01 
452 1055.47 9.09584965e+00 9.47318217e-02 
451 1057.23 9.24012255e+00 9.38530809e-02 
450 1058.98 9.07425426e+00 7.59646764e-02 
449 1060.73 9.27050206e+00 9.25509176e-02 
448 1062.48 9.06119000e+00 9.56495857e-02 
447 1064.23 9.22261973e+00 1.08430162e-01 
446 1065.97 8.93763364e+00 1.23502409e-01 
445 1067.71 8.99589749e+00 1.15949942e-01 
444 1069.46 8.77015959e+00 8.51063620e-02 
443 1071.19 8.87435575e+00 6.38046020e-02 
442 1072.93 8.67687744e+00 3.44611172e-02 
441 1074.67 8.76153753e+00 5.77167206e-02 
440 1076.40 8.55089109e+00 7.23258072e-02 
439 1078.13 8.61381864e+00 9.63832166e-02 
438 1079.86 8.37041221e+00 9.67016513e-02 
437 1081.58 8.44344534e+00 1.19623952e-01 
436 1083.31 8.29570107e+00 1.47026772e-01 
435 1085.03 8.45780839e+00 1.47866820e-01 
434 1086.75 8.38816044e+00 1.47319634e-01 
433 1088.47 8.56087561e+00 1.37369360e-01 
432 1090.19 8.44107462e+00 1.46145149e-01 
431 1091.90 8.55811581e+00 1.76290411e-01 
430 1093.61 8.42582749e+00 2.13576105e-01 
429 1095.33 8.64324550e+00 2.55588481e-01 
428 1097.03 8.64136790e+00 3.39956353e-01 
427 1098.74 8.87258559e+00 4.03375871e-01 
426 1100.45 8.82755609e+00 4.49910184e-01 
425 1102.15 9.07470730e+00 4.86410366e-01 
424 1103.85 9.00689624e+00 5.13840018e-01 
423 1105.55 9.17393978e+00 5.62966891e-01 
422 1107.25 8.99950868e+00 5.87185471e-01 
421 1108.94 9.03656946e+00 6.56352628e-01 
420 1110.64 8.62886571e+00 7.89807299e-01 
419 1112.33 8.32708010e+00 1.03532352e+00 
418 1114.02 7.58075305e+00 1.29912843e+00 
417 1115.70 7.31063397e+00 1.49337372e+00 
416 1117.39 6.91898244e+00 1.58579345e+00 
415 1119.07 6.77362225e+00 1.67604132e+00 
414 1120.76 6.57235401e+00 1.66241320e+00 
413 1122.44 6.51405785e+00 1.70160010e+00 
412 1124.12 6.47546166e+00 1.74761861e+00 
411 1125.79 6.77902837e+00 1.84111753e+00 
410 1127.47 7.02722074e+00 1.82058888e+00 
409 1129.14 7.54085972e+00 1.71588824e+00 
408 1130.81 6.95487229e+00 1.65790138e+00 
407 1132.48 6.71430471e+00 1.61887804e+00 
406 1134.15 6.61574302e+00 1.56640421e+00 
405 1135.81 7.19832879e+00 1.41228170e+00 
404 1137.48 8.09667698e+00 1.27101407e+00 
403 1139.14 8.49186682e+00 1.23018867e+00 
402 1140.80 8.08010325e+00 1.31188995e+00 
401 1142.46 7.80098109e+00 1.52327771e+00 
400 1144.12 7.32352213e+00 1.62334882e+00 
399 1145.77 7.26225765e+00 1.68136852e+00 
398 1147.43 7.32946117e+00 1.56159614e+00 
397 1149.08 7.71860825e+00 1.38856692e+00 
396 1150.73 7.76160403e+00 1.32553529e+00 
395 1152.38 8.15613304e+00 1.21920523e+00 
394 1154.02 8.24448622e+00 1.10219632e+00 
393 1155.67 8.63914618e+00 9.61762406e-01 
392 1157.31 8.64061121e+00 8.33877751e-01 
391 1158.95 8.86805230e+00 7.45743968e-01 
390 1160.59 8.93336111e+00 6.51751463e-01 
389 1162.23 9.20013381e+00 6.12282442e-01 
388 1163.87 9.16562379e+00 5.50259454e-01 
387 1165.50 9.28636384e+00 5.28498795e-01 
386 1167.13 9.21163054e+00 4.65257597e-01 
385 1168.76 9.36028043e+00 3.92864306e-01 
384 1170.39 9.17462711e+00 4.29630606e-01 
383 1172.02 9.15853405e+00 4.16985111e-01 
382 1173.65 8.95780692e+00 4.12894622e-01 
381 1175.27 8.94284244e+00 3.94226193e-01 
380 1176.90 8.82778506e+00 3.28280232e-01 
379 1178.52 8.72786744e+00 3.61546348e-01 
378 1180.14 8.50312898e+00 3.79971085e-01 
377 1181.75 8.49167467e+00 3.96729596e-01 
376 1183.37 8.33952514e+00 3.80322696e-01 
375 1184.99 8.37378695e+00 3.65670177e-01 
374 1186.60 8.27520387e+00 3.50427166e-01 
373 1188.21 8.28011659e+00 3.31470074e-01 
372 1189.82 8.24668801e+00 2.78757764e-01 
371 1191.43 8.48821934e+00 2.44684868e-01 
370 1193.04 8.39054533e+00 2.25941639e-01 
369 1194.64 8.35660005e+00 2.52370611e-01 
368 1196.24 8.13377165e+00 2.79852023e-01 
367 1197.85 8.17910901e+00 2.98456737e-01 
366 1199.45 8.02963577e+00 3.23390114e-01 
365 1201.05 8.11658495e+00 3.39699140e-01 
364 1202.64 8.06848562e+00 3.20467025e-01 
363 1204.24 8.14692887e+00 3.29006125e-01 
362 1205.83 8.12048272e+00 3.16818583e-01 
361 1207.43 8.13699419e+00 2.96827613e-01 
360 1209.02 8.07700631e+00 2.73080098e-01 
359 1210.61 8.19244067e+00 2.38553342e-01 
358 1212.19 8.16286581e+00 2.06208823e-01 
357 1213.78 8.32017341e+00 1.63047546e-01 
356 1215.37 8.26038255e+00 1.56213513e-01 
355 1216.95 8.35398798e+00 1.38293878e-01 
354 1218.53 8.29427353e+00 1.41195685e-01 
353 1220.11 8.35371929e+00 1.41841335e-01 
352 1221.69 8.31740620e+00 1.26355695e-01 
351 1223.27 8.37970141e+00 1.20841479e-01 
350 1224.84 8.37752779e+00 9.08896761e-02 
349 1226.42 8.45808431e+00 9.10804628e-02 
348 1227.99 8.44265921e+00 7.05132210e-02 
347 1229.56 8.56112255e+00 6.01800907e-02 
346 1231.13 8.45603544e+00 3.86448026e-02 
345 1232.70 8.52088410e+00 3.57009811e-02 
344 1234.27 8.49712675e+00 3.49327312e-02 
343 1235.84 8.52369926e+00 3.64553784e-02 
342 1237.40 8.46738293e+00 5.05997831e-02 
341 1238.96 8.48878742e+00 7.84232770e-02 
340 1240.52 8.33678847e+00 7.57416199e-02 
339 1242.08 8.43437115e+00 7.33095370e-02 
338 1243.64 8.37494542e+00 5.85928004e-02 
337 1245.20 8.41709976e+00 3.96178043e-02 
336 1246.75 8.38204464e+00 5.20478351e-02 
335 1248.31 8.45409755e+00 5.21390367e-02 
334 1249.86 8.39074906e+00 5.25173658e-02 
333 1251.41 8.43188814e+00 5.91286123e-02 
332 1252.96 8.35226687e+00 7.93265586e-02 
331 1254.51 8.38458763e+00 8.52285669e-02 
330 1256.06 8.28738383e+00 8.66338365e-02 
329 1257.61 8.25793978e+00 1.10672454e-01 
328 1259.15 8.14115832e+00 1.45260024e-01 
327 1260.69 8.10712543e+00 1.73752025e-01 
326 1262.23 7.99054306e+00 2.13813208e-01 
325 1263.77 7.96960196e+00 2.23147963e-01 
324 1265.31 7.79531696e+00 2.94738326e-01 
323 1266.85 7.81766576e+00 3.12740096e-01 
322 1268.39 7.84963013e+00 2.95540779e-01 
321 1269.92 7.96121024e+00 2.60515088e-01 
320 1271.46 8.10742479e+00 1.70708463e-01 
319 1272.99 8.16500576e+00 1.48031526e-01 
318 1274.52 8.15267321e+00 1.46471141e-01 
317 1276.05 8.23028476e+00 1.43825772e-01 
316 1277.58 8.08198178e+00 1.10515057e-01 
315 1279.10 7.94079032e+00 8.21501292e-02 
314 1280.63 7.88555456e+00 5.91017929e-02 
313 1282.15 7.88769116e+00 7.21560132e-02 
312 1283.68 7.98580657e+00 7.55541348e-02 
311 1285.20 8.19340252e+00 1.04209699e-01 
310 1286.72 8.16566785e+00 1.23894602e-01 
309 1288.24 8.16889839e+00 1.37493387e-01 
308 1289.75 8.04343124e+00 1.30557641e-01 
307 1291.27 8.07662352e+00 1.30051818e-01 
306 1292.78 8.10591776e+00 1.37482805e-01 
305 1294.30 8.09367834e+00 1.52838734e-01 
304 1295.81 7.98169773e+00 1.43339187e-01 
303 1297.32 7.95243803e+00 1.73179908e-01 
302 1298.83 7.87987832e+00 1.70653110e-01 
301 1300.34 7.78932852e+00 2.05783673e-01 
300 1301.85 7.68420532e+00 2.23448766e-01 
299 1303.35 7.61305554e+00 2.61749982e-01 
298 1304.86 7.50108963e+00 2.74536215e-01 
297 1306.36 7.48089896e+00 2.79525295e-01 
296 1307.86 7.41341350e+00 3.12954952e-01 
295 1309.36 7.30673491e+00 3.42499550e-01 
294 1310.86 7.16980639e+00 3.94894267e-01 
293 1312.36 7.08332467e+00 4.27670372e-01 
292 1313.86 7.00354755e+00 4.23941154e-01 
291 1315.36 6.98597678e+00 4.43503971e-01 
290 1316.85 6.90038299e+00 4.57889744e-01 
289 1318.34 6.86797150e+00 4.61731005e-01 
288 1319.84 6.75394853e+00 5.13341950e-01 
287 1321.33 6.78964050e+00 5.17042214e-01 
286 1322.82 6.77495041e+00 4.86736042e-01 
285 1324.30 6.72967100e+00 5.38853345e-01 
284 1325.79 6.53402852e+00 5.86134907e-01 
283 1327.28 6.29360078e+00 7.01210152e-01 
282 1328.76 5.96587811e+00 8.49538814e-01 
281 1330.25 5.82696724e+00 9.31633216e-01 
280 1331.73 5.77861574e+00 9.21414652e-01 
279 1333.21 5.80275628e+00 8.66115092e-01 
278 1334.69 5.82578288e+00 7.99684377e-01 
277 1336.17 5.82425724e+00 7.20186263e-01 
276 1337.65 5.70062879e+00 7.53888994e-01 
275 1339.12 5.65814040e+00 7.26217562e-01 
274 1340.60 5.44645610e+00 7.95984345e-01 
273 1342.07 5.19676862e+00 8.96387150e-01 
272 1343.55 4.87874895e+00 9.66566497e-01 
271 1345.02 4.18703559e+00 1.12413801e+00 
270 1346.49 3.78444662e+00 1.22121245e+00 
269 1347.96 3.26499659e+00 1.34370478e+00 
268 1349.43 2.72918568e+00 1.47202658e+00 
267 1350.89 2.28294406e+00 1.46499929e+00 
266 1352.36 1.62660300e+00 1.49192218e+00 
265 1353.82 1.28115168e+00 1.54413571e+00 
264 1355.29 5.44263124e-01 6.73271952e-01 
263 1356.75 7.57603398e-01 1.31638436e+00 
262 1358.21 4.94307340e-01 9.66526703e-01 
261 1359.67 2.53269982e-01 5.80660705e-02 
260 1361.13 2.01193276e-01 9.34494192e-02 
259 1362.59 1.97549428e-01 1.27217416e-01 
258 1364.04 3.81804420e-01 7.65649787e-01 
257 1365.50 4.12621029e-01 8.00776447e-01 
256 1366.95 3.07551393e-01 1.59989067e-02 
255 1368.41 1.97735056e-01 3.60233903e-02 
254 1369.86 2.58147765e-01 5.05393722e-01 
253 1371.31 5.31396845e-01 9.72225507e-01 
252 1372.76 4.41815597e-01 8.23238793e-02 
251 1374.21 8.22564109e-01 1.41382223e+00 
250 1375.65 7.36213684e-01 1.31703442e+00 
249 1377.10 7.09430192e-01 1.27450000e+00 
248 1378.55 4.05041959e-01 4.45805058e-01 
247 1379.99 4.53218624e-01 6.80464473e-01 
246 1381.43 2.26860866e-01 3.04436721e-02 
245 1382.87 2.19126288e-01 4.32472837e-01 
244 1384.32 2.86133774e-01 5.32318509e-01 
243 1385.75 5.67641370e-01 8.03330309e-01 
242 1387.19 8.66941385e-01 1.02836932e+00 
241 1388.63 6.84035319e-01 1.03801885e+00 
240 1390.07 1.10068975e+00 1.18367116e+00 
239 1391.50 1.09919908e+00 1.10943717e+00 
238 1392.94 4.49787049e-01 1.03666842e-01 
237 1394.37 7.40331590e-01 8.59363100e-01 
236 1395.80 9.18265835e-01 8.78198631e-01 
235 1397.23 9.11136889e-01 7.43118934e-01 
234 1398.66 5.92375441e-01 2.97914111e-01 
233 1400.09 1.13697274e+00 7.96043156e-01 
232 1401.52 9.17197282e-01 7.13434112e-01 
231 1402.94 1.16071187e+00 8.04583043e-01 
230 1404.37 9.27075848e-01 1.39282241e+00 
229 1405.79 1.21188518e+00 9.49523832e-01 
228 1407.22 9.27592384e-01 1.41183564e+00 
227 1408.64 1.37097804e+00 1.01328796e+00 
226 1410.06 1.26665102e+00 1.37166420e+00 
225 1411.48 1.44948916e+00 9.97307577e-01 
224 1412.90 1.41888187e+00 1.43011666e+00 
223 1414.32 1.84128321e+00 1.00228465e+00 
222 1415.73 1.78243451e+00 9.57596479e-01 
221 1417.15 1.86274323e+00 9.77509365e-01 
220 1418.56 2.00752605e+00 9.74696950e-01 
219 1419.98 1.96189400e+00 9.34224752e-01 
218 1421.39 2.12589456e+00 9.22650064e-01 
217 1422.80 2.37592631e+00 9.43720867e-01 
216 1424.21 2.41381357e+00 9.62659063e-01 
215 1425.62 2.36731213e+00 1.01968093e+00 
214 1427.03 2.48867002e+00 9.84048038e-01 
213 1428.44 2.38322608e+00 9.59493909e-01 
212 1429.84 2.27600816e+00 9.24344674e-01 
211 1431.25 2.34883126e+00 9.28971714e-01 
210 1432.65 2.33196779e+00 9.78615903e-01 
209 1434.06 2.36766584e+00 9.87324422e-01 
208 1435.46 2.46003932e+00 9.62018570e-01 
207 1436.86 2.53807459e+00 9.22907397e-01 
206 1438.26 2.57631617e+00 9.03730707e-01 
205 1439.66 2.65773806e+00 9.23466878e-01 
204 1441.05 2.87253479e+00 8.98860126e-01 
203 1442.45 2.79390283e+00 9.12275308e-01 
202 1443.85 2.78683152e+00 9.04403404e-01 
201 1445.24 2.89740440e+00 8.80706004e-01 
200 1446.64 2.89518368e+00 8.64438137e-01 
199 1448.03 2.78060600e+00 8.73023727e-01 
198 1449.42 2.88786007e+00 8.67847694e-01 
197 1450.81 2.96372693e+00 8.18537659e-01 
196 1452.20 3.04531503e+00 8.19447741e-01 
195 1453.59 3.41430139e+00 7.78165141e-01 
194 1454.97 3.68405500e+00 7.08664068e-01 
193 1456.36 3.73295293e+00 6.82863743e-01 
192 1457.75 3.75324333e+00 6.86273678e-01 
191 1459.13 3.67769885e+00 6.99415147e-01 
190 1460.51 3.55409731e+00 7.23554843e-01 
189 1461.90 3.37263554e+00 6.94243751e-01 
188 1463.28 3.25147391e+00 7.05047285e-01 
187 1464.66 3.12931990e+00 7.16831450e-01 
186 1466.04 3.14018405e+00 7.48666903e-01 
185 1467.41 2.93458127e+00 8.31272298e-01 
184 1468.79 2.84809198e+00 8.80117028e-01 
183 1470.17 2.82841946e+00 8.54290078e-01 
182 1471.54 2.87879743e+00 8.18894730e-01 
181 1472.92 3.03296966e+00 7.72033856e-01 
180 1474.29 3.19874913e+00 7.56895670e-01 
179 1475.66 3.24658745e+00 7.19160256e-01 
178 1477.03 3.14977733e+00 7.38636073e-01 
177 1478.40 3.08086050e+00 7.51550790e-01 
176 1479.77 3.17099863e+00 6.88648736e-01 
175 1481.14 3.23162166e+00 6.37908403e-01 
174 1482.51 3.35760865e+00 6.09648809e-01 
173 1483.87 3.36940142e+00 5.85716448e-01 
172 1485.24 3.36469720e+00 5.71809259e-01 
171 1486.60 3.36201901e+00 5.29500976e-01 
170 1487.96 3.45837850e+00 4.81059652e-01 
169 1489.32 3.53897682e+00 4.16212173e-01 
168 1490.69 3.73461914e+00 3.66386211e-01 
167 1492.04 3.75909814e+00 3.58537844e-01 
166 1493.40 3.79877107e+00 3.47760241e-01 
165 1494.76 3.80781494e+00 3.24135298e-01 
164 1496.12 3.87293441e+00 2.89229967e-01 
163 1497.47 3.88721178e+00 2.56055527e-01 
162 1498.83 4.00226946e+00 2.05170548e-01 
161 1500.18 3.86037866e+00 2.17823823e-01 
160 1501.53 3.77038861e+00 2.38180982e-01 
159 1502.89 3.66523113e+00 2.21994682e-01 
158 1504.24 3.69013766e+00 2.12858589e-01 
157 1505.59 3.73592955e+00 2.19008065e-01 
156 1506.93 3.88879094e+00 1.78162848e-01 
155 1508.28 3.95025924e+00 1.59600274e-01 
154 1509.63 3.97915859e+00 1.59142042e-01 
153 1510.97 3.95569303e+00 1.63874343e-01 
152 1512.32 4.02795394e+00 1.39671715e-01 
151 1513.66 3.95784545e+00 1.67995313e-01 
150 1515.00 4.00660229e+00 1.45763768e-01 
149 1516.34 3.98599825e+00 1.36049071e-01 
148 1517.69 3.99898846e+00 1.04754765e-01 
147 1519.02 3.95210264e+00 7.50427362e-02 
146 1520.36 3.98220240e+00 5.90589244e-02 
145 1521.70 3.94824687e+00 4.37468169e-02 
144 1523.04 4.00774319e+00 4.70519734e-02 
143 1524.37 3.97019783e+00 6.33755826e-02 
142 1525.71 4.00731374e+00 6.24562424e-02 
141 1527.04 3.94016570e+00 4.94454054e-02 
140 1528.37 3.96123499e+00 4.31919220e-02 
139 1529.70 3.89038437e+00 2.56386912e-02 
138 1531.03 3.93247029e+00 2.10425828e-02 
137 1532.36 3.88731925e+00 2.64520848e-02 
136 1533.69 3.92999905e+00 2.52420227e-02 
135 1535.02 3.85200759e+00 3.87692395e-02 
134 1536.34 3.86972716e+00 4.18485145e-02 
133 1537.67 3.79829495e+00 4.35568306e-02 
132 1538.99 3.83135447e+00 2.09384873e-02 
131 1540.31 3.77654476e+00 1.94074958e-02 
130 1541.64 3.81193641e+00 2.06864239e-02 
129 1542.96 3.78598448e+00 2.37002997e-02 
128 1544.28 3.82442807e+00 2.15863135e-02 
127 1545.60 3.76096856e+00 1.92488815e-02 
126 1546.91 3.79427497e+00 1.61280821e-02 
125 1548.23 3.70648759e+00 1.76468331e-02 
124 1549.55 3.72835677e+00 2.64413255e-02 
123 1550.86 3.65656261e+00 1.86236537e-02 
122 1552.18 3.67060938e+00 2.03125917e-02 
121 1553.49 3.61558654e+00 2.13401892e-02 
120 1554.80 3.65316610e+00 1.90632980e-02 
119 1556.11 3.57727016e+00 1.66276913e-02 
118 1557.42 3.60463503e+00 2.83116156e-02 
117 1558.73 3.53406596e+00 2.42696160e-02 
116 1560.04 3.55157913e+00 3.30223642e-02 
115 1561.34 3.47937126e+00 2.42512893e-02 
114 1562.65 3.52487296e+00 3.05696135e-02 
113 1563.95 3.45479141e+00 2.96866593e-02 
112 1565.26 3.51174664e+00 4.31062416e-02 
111 1566.56 3.39509528e+00 2.14338993e-02 
110 1567.86 3.40932488e+00 3.43789159e-02 
109 1569.16 3.31874107e+00 5.42998847e-02 
108 1570.46 3.30636200e+00 7.43113018e-02 
107 1571.76 3.20918739e+00 8.06999554e-02 
106 1573.05 3.19338883e+00 7.65261733e-02 
105 1574.35 3.09441919e+00 5.58096370e-02 
104 1575.64 3.10689907e+00 5.76328409e-02 
103 1576.94 3.08346295e+00 4.86930461e-02 
102 1578.23 3.14267299e+00 5.70629880e-02 
101 1579.52 3.11565094e+00 4.46993233e-02 
100 1580.81 3.17193374e+00 3.97206391e-02 
99 1582.10 3.11420315e+00 2.75383783e-02 
98 1583.39 3.15854259e+00 1.05168576e-02 
97 1584.68 3.07576909e+00 2.27159528e-02 
96 1585.97 3.05792243e+00 1.83021970e-02 
95 1587.25 2.95855817e+00 2.63092324e-02 
94 1588.54 2.97895614e+00 2.03929833e-02 
93 1589.82 2.92613582e+00 2.03523843e-02 
92 1591.10 3.01779082e+00 2.24049664e-02 
91 1592.38 2.98916541e+00 1.51169286e-02 
90 1593.66 3.04705951e+00 7.86561396e-03 
89 1594.94 2.97873185e+00 1.26152290e-02 
88 1596.22 3.00957000e+00 6.47544262e-03 
87 1597.50 2.91934459e+00 9.52662642e-03 
86 1598.77 2.93599437e+00 2.93049205e-02 
85 1600.05 2.84282458e+00 4.87116544e-02 
84 1601.32 2.85587874e+00 5.55637621e-02 
83 1602.59 2.77318034e+00 4.49496671e-02 
82 1603.86 2.82340220e+00 4.96703040e-02 
81 1605.13 2.71100746e+00 3.88695943e-02 
80 1606.40 2.77178093e+00 5.88236674e-02 
79 1607.67 2.67987726e+00 3.85354434e-02 
78 1608.94 2.71630252e+00 4.50319552e-02 
77 1610.20 2.65742451e+00 3.74604484e-02 
76 1611.47 2.71651471e+00 3.00152011e-02 
75 1612.73 2.66551662e+00 1.57847815e-02 
74 1614.00 2.71029644e+00 3.04698951e-02 
73 1615.26 2.65498177e+00 2.47056464e-02 
72 1616.52 2.67261051e+00 2.96493300e-02 
71 1617.78 2.56983309e+00 2.58233542e-02 
70 1619.03 2.60193550e+00 2.18426720e-02 
69 1620.29 2.53428843e+00 1.69934028e-02 
68 1621.55 2.58016350e+00 1.47121680e-02 
67 1622.80 2.52004677e+00 1.83545640e-02 
66 1624.06 2.58471819e+00 1.58235268e-02 
65 1625.31 2.49633144e+00 2.32743704e-02 
64 1626.56 2.55422911e+00 2.59661788e-02 
63 1627.81 2.46807806e+00 1.94822108e-02 
62 1629.06 2.48433010e+00 2.02906991e-02 
61 1630.31 2.40864272e+00 1.40717690e-02 
60 1631.56 2.42885518e+00 2.64994200e-02 
59 1632.80 2.34244742e+00 2.41942095e-02 
58 1634.05 2.37298862e+00 1.55721950e-02 
57 1635.29 2.27461574e+00 1.16803591e-02 
56 1636.53 2.28132756e+00 1.04924039e-02 
55 1637.77 2.17304600e+00 1.40633698e-02 
54 1639.01 2.18363855e+00 2.13857740e-02 
53 1640.25 2.11926726e+00 2.60022235e-02 
52 1641.49 2.13514312e+00 3.21122560e-02 
