% C0 (TOA Count Rate, /ms) for 4STAR NIR spectrometer (512 channels) derived from 20141002starsun_R2.mat and recorded on 2015-10-20 17:03:43.
% Data outside 2.0x the STD of 501 nm Langley residuals were screened out.
Pix Wavelength C0 C0err
511 949.79 4.54859616e+00 6.82289424e-02 
510 949.79 4.68431823e+00 7.02647734e-02 
509 951.68 5.02241984e+00 7.53362976e-02 
508 953.57 5.06319372e+00 7.59479058e-02 
507 955.46 5.46143480e+00 8.19215219e-02 
506 957.34 5.54134425e+00 8.31201637e-02 
505 959.22 5.93633670e+00 8.90450505e-02 
504 961.10 5.98198468e+00 8.97297702e-02 
503 962.98 6.35044345e+00 9.52566518e-02 
502 964.85 6.30837768e+00 9.46256652e-02 
501 966.72 6.72082312e+00 1.00812347e-01 
500 968.59 6.71407578e+00 1.00711137e-01 
499 970.45 7.04239844e+00 1.05635977e-01 
498 972.32 6.99338106e+00 1.04900716e-01 
497 974.18 7.26714902e+00 1.09007235e-01 
496 976.04 7.17661114e+00 1.07649167e-01 
495 977.89 7.45109439e+00 1.11766416e-01 
494 979.74 7.32187608e+00 1.09828141e-01 
493 981.59 7.55507589e+00 1.13326138e-01 
492 983.44 7.40427928e+00 1.11064189e-01 
491 985.29 7.60219020e+00 1.14032853e-01 
490 987.13 7.41611594e+00 1.11241739e-01 
489 988.97 7.62093658e+00 1.14314049e-01 
488 990.81 7.44094040e+00 1.11614106e-01 
487 992.65 7.57996987e+00 1.13699548e-01 
486 994.48 7.39632267e+00 1.10944840e-01 
485 996.31 7.53597914e+00 1.13039687e-01 
484 998.14 7.31857909e+00 1.09778686e-01 
483 999.97 7.46446942e+00 1.11967041e-01 
482 1001.79 7.22796099e+00 1.08419415e-01 
481 1003.62 7.28783836e+00 1.09317575e-01 
480 1005.44 7.11979058e+00 1.06796859e-01 
479 1007.25 7.32073577e+00 1.09811037e-01 
478 1009.07 7.14978722e+00 1.07246808e-01 
477 1010.88 7.30842022e+00 1.09626303e-01 
476 1012.69 7.08180073e+00 1.06227011e-01 
475 1014.50 7.19083522e+00 1.07862528e-01 
474 1016.31 7.00742017e+00 1.05111303e-01 
473 1018.11 7.13143471e+00 1.06971521e-01 
472 1019.91 6.91989162e+00 1.03798374e-01 
471 1021.71 7.04502540e+00 1.05675381e-01 
470 1023.51 6.84830755e+00 1.02724613e-01 
469 1025.30 6.99379899e+00 1.04906985e-01 
468 1027.09 6.89321004e+00 1.03398151e-01 
467 1028.88 7.01657290e+00 1.05248594e-01 
466 1030.67 6.88343545e+00 1.03251532e-01 
465 1032.46 7.03697348e+00 1.05554602e-01 
464 1034.24 6.89000695e+00 1.03350104e-01 
463 1036.02 7.04912634e+00 1.05736895e-01 
462 1037.80 6.95012368e+00 1.04251855e-01 
461 1039.58 7.14106401e+00 1.07115960e-01 
460 1041.35 7.01867052e+00 1.05280058e-01 
459 1043.12 7.17759093e+00 1.07663864e-01 
458 1044.89 7.11371100e+00 1.06705665e-01 
457 1046.66 7.30039733e+00 1.09505960e-01 
456 1048.43 7.24671680e+00 1.08700752e-01 
455 1050.19 7.44223724e+00 1.11633559e-01 
454 1051.95 7.30796796e+00 1.09619519e-01 
453 1053.71 7.52751690e+00 1.12912754e-01 
452 1055.47 7.38760728e+00 1.10814109e-01 
451 1057.23 7.52659447e+00 1.12898917e-01 
450 1058.98 7.40256123e+00 1.11038418e-01 
449 1060.73 7.56796139e+00 1.13519421e-01 
448 1062.48 7.41871671e+00 1.11280751e-01 
447 1064.23 7.51421887e+00 1.12713283e-01 
446 1065.97 7.26414725e+00 1.08962209e-01 
445 1067.71 7.31370057e+00 1.09705509e-01 
444 1069.46 7.11898137e+00 1.06784721e-01 
443 1071.19 7.21313578e+00 1.08197037e-01 
442 1072.93 7.07611326e+00 1.06141699e-01 
441 1074.67 7.15053161e+00 1.07257974e-01 
440 1076.40 6.98480489e+00 1.04772073e-01 
439 1078.13 7.01047263e+00 1.05157089e-01 
438 1079.86 6.80932047e+00 1.02139807e-01 
437 1081.58 6.88775788e+00 1.03316368e-01 
436 1083.31 6.77735745e+00 1.01660362e-01 
435 1085.03 6.94109674e+00 1.04116451e-01 
434 1086.75 6.87038621e+00 1.03055793e-01 
433 1088.47 7.00148253e+00 1.05022238e-01 
432 1090.19 6.91593151e+00 1.03738973e-01 
431 1091.90 7.02640955e+00 1.05396143e-01 
430 1093.61 6.90852210e+00 1.03627832e-01 
429 1095.33 7.10770504e+00 1.06615576e-01 
428 1097.03 7.14353284e+00 1.07152993e-01 
427 1098.74 7.37905978e+00 1.10685897e-01 
426 1100.45 7.40567028e+00 1.11085054e-01 
425 1102.15 7.64815724e+00 1.14722359e-01 
424 1103.85 7.63322406e+00 1.14498361e-01 
423 1105.55 7.86488645e+00 1.17973297e-01 
422 1107.25 7.81851372e+00 1.17277706e-01 
421 1108.94 7.96420159e+00 1.19463024e-01 
420 1110.64 7.81048141e+00 1.17157221e-01 
419 1112.33 7.89922359e+00 1.18488354e-01 
418 1114.02 7.63716412e+00 1.14557462e-01 
417 1115.70 7.63568115e+00 1.14535217e-01 
416 1117.39 7.43348617e+00 1.11502293e-01 
415 1119.07 7.42668885e+00 1.11400333e-01 
414 1120.76 7.28620909e+00 1.09293136e-01 
413 1122.44 7.37183120e+00 1.10577468e-01 
412 1124.12 7.30085651e+00 1.09512848e-01 
411 1125.79 7.46322390e+00 1.11948358e-01 
410 1127.47 7.56220590e+00 1.13433088e-01 
409 1129.14 7.78423250e+00 1.16763487e-01 
408 1130.81 7.48238468e+00 1.12235770e-01 
407 1132.48 7.40272514e+00 1.11040877e-01 
406 1134.15 7.27453450e+00 1.09118018e-01 
405 1135.81 7.49871888e+00 1.12480783e-01 
404 1137.48 7.77961416e+00 1.16694212e-01 
403 1139.14 7.94597571e+00 1.19189636e-01 
402 1140.80 7.75877734e+00 1.16381660e-01 
401 1142.46 7.77449464e+00 1.16617420e-01 
400 1144.12 7.58260921e+00 1.13739138e-01 
399 1145.77 7.62878172e+00 1.14431726e-01 
398 1147.43 7.58319591e+00 1.13747939e-01 
397 1149.08 7.69466674e+00 1.15420001e-01 
396 1150.73 7.66578638e+00 1.14986796e-01 
395 1152.38 7.85724226e+00 1.17858634e-01 
394 1154.02 7.78262427e+00 1.16739364e-01 
393 1155.67 7.94870522e+00 1.19230578e-01 
392 1157.31 7.82652662e+00 1.17397899e-01 
391 1158.95 7.88215502e+00 1.18232325e-01 
390 1160.59 7.77237733e+00 1.16585660e-01 
389 1162.23 7.90613351e+00 1.18592003e-01 
388 1163.87 7.81228306e+00 1.17184246e-01 
387 1165.50 7.86342750e+00 1.17951413e-01 
386 1167.13 7.74780631e+00 1.16217095e-01 
385 1168.76 7.80130236e+00 1.17019535e-01 
384 1170.39 7.69400199e+00 1.15410030e-01 
383 1172.02 7.67294791e+00 1.15094219e-01 
382 1173.65 7.52506893e+00 1.12876034e-01 
381 1175.27 7.52687367e+00 1.12903105e-01 
380 1176.90 7.41329413e+00 1.11199412e-01 
379 1178.52 7.40967393e+00 1.11145109e-01 
378 1180.14 7.23166824e+00 1.08475024e-01 
377 1181.75 7.23856790e+00 1.08578518e-01 
376 1183.37 7.06346171e+00 1.05951926e-01 
375 1184.99 7.09641676e+00 1.06446251e-01 
374 1186.60 6.98791414e+00 1.04818712e-01 
373 1188.21 6.96203476e+00 1.04430521e-01 
372 1189.82 6.86069124e+00 1.02910369e-01 
371 1191.43 7.00403354e+00 1.05060503e-01 
370 1193.04 6.89097518e+00 1.03364628e-01 
369 1194.64 6.87317314e+00 1.03097597e-01 
368 1196.24 6.71863929e+00 1.00779589e-01 
367 1197.85 6.75965189e+00 1.01394778e-01 
366 1199.45 6.67424238e+00 1.00113636e-01 
365 1201.05 6.75691898e+00 1.01353785e-01 
364 1202.64 6.68096324e+00 1.00214449e-01 
363 1204.24 6.70706237e+00 1.00605936e-01 
362 1205.83 6.63951289e+00 9.95926933e-02 
361 1207.43 6.64903631e+00 9.97355446e-02 
360 1209.02 6.59942693e+00 9.89914039e-02 
359 1210.61 6.68879303e+00 1.00331895e-01 
358 1212.19 6.66883679e+00 1.00032552e-01 
357 1213.78 6.77809222e+00 1.01671383e-01 
356 1215.37 6.70388606e+00 1.00558291e-01 
355 1216.95 6.73418011e+00 1.01012702e-01 
354 1218.53 6.69103661e+00 1.00365549e-01 
353 1220.11 6.75593133e+00 1.01338970e-01 
352 1221.69 6.73192769e+00 1.00978915e-01 
351 1223.27 6.76861419e+00 1.01529213e-01 
350 1224.84 6.75084998e+00 1.01262750e-01 
349 1226.42 6.80420714e+00 1.02063107e-01 
348 1227.99 6.79948272e+00 1.01992241e-01 
347 1229.56 6.89793281e+00 1.03468992e-01 
346 1231.13 6.82500709e+00 1.02375106e-01 
345 1232.70 6.88956188e+00 1.03343428e-01 
344 1234.27 6.85089858e+00 1.02763479e-01 
343 1235.84 6.85037461e+00 1.02755619e-01 
342 1237.40 6.79726057e+00 1.01958908e-01 
341 1238.96 6.81044604e+00 1.02156691e-01 
340 1240.52 6.68848641e+00 1.00327296e-01 
339 1242.08 6.78694007e+00 1.01804101e-01 
338 1243.64 6.76727228e+00 1.01509084e-01 
337 1245.20 6.82503818e+00 1.02375573e-01 
336 1246.75 6.81420478e+00 1.02213072e-01 
335 1248.31 6.87335510e+00 1.03100327e-01 
334 1249.86 6.80296905e+00 1.02044536e-01 
333 1251.41 6.82032019e+00 1.02304803e-01 
332 1252.96 6.76569299e+00 1.01485395e-01 
331 1254.51 6.81519929e+00 1.02227989e-01 
330 1256.06 6.74987450e+00 1.01248118e-01 
329 1257.61 6.72517700e+00 1.00877655e-01 
328 1259.15 6.64101417e+00 9.96152125e-02 
327 1260.69 6.59829806e+00 9.89744709e-02 
326 1262.23 6.50320361e+00 9.75480542e-02 
325 1263.77 6.47654085e+00 9.71481127e-02 
324 1265.31 6.31851178e+00 9.47776767e-02 
323 1266.85 6.33932339e+00 9.50898509e-02 
322 1268.39 6.36806457e+00 9.55209686e-02 
321 1269.92 6.47092817e+00 9.70639226e-02 
320 1271.46 6.62107199e+00 9.93160799e-02 
319 1272.99 6.66627854e+00 9.99941782e-02 
318 1274.52 6.66984003e+00 1.00047601e-01 
317 1276.05 6.72096936e+00 1.00814540e-01 
316 1277.58 6.58556825e+00 9.87835237e-02 
315 1279.10 6.43612925e+00 9.65419388e-02 
314 1280.63 6.38117852e+00 9.57176779e-02 
313 1282.15 6.37244582e+00 9.55866873e-02 
312 1283.68 6.45381793e+00 9.68072690e-02 
311 1285.20 6.59908426e+00 9.89862640e-02 
310 1286.72 6.56054075e+00 9.84081113e-02 
309 1288.24 6.57324609e+00 9.85986913e-02 
308 1289.75 6.50888010e+00 9.76332015e-02 
307 1291.27 6.53963328e+00 9.80944992e-02 
306 1292.78 6.55483838e+00 9.83225757e-02 
305 1294.30 6.56688008e+00 9.85032013e-02 
304 1295.81 6.50776737e+00 9.76165106e-02 
303 1297.32 6.52863282e+00 9.79294923e-02 
302 1298.83 6.47054856e+00 9.70582285e-02 
301 1300.34 6.43391743e+00 9.65087614e-02 
300 1301.85 6.38901038e+00 9.58351556e-02 
299 1303.35 6.34797758e+00 9.52196638e-02 
298 1304.86 6.27469886e+00 9.41204830e-02 
297 1306.36 6.25179414e+00 9.37769121e-02 
296 1307.86 6.20284502e+00 9.30426753e-02 
295 1309.36 6.11798090e+00 9.17697136e-02 
294 1310.86 6.07404043e+00 9.11106064e-02 
293 1312.36 6.02713959e+00 9.04070938e-02 
292 1313.86 5.99186887e+00 8.98780330e-02 
291 1315.36 5.99924226e+00 8.99886339e-02 
290 1316.85 5.96619930e+00 8.94929895e-02 
289 1318.34 5.94961084e+00 8.92441626e-02 
288 1319.84 5.92492445e+00 8.88738668e-02 
287 1321.33 5.95322014e+00 8.92983021e-02 
286 1322.82 5.89316235e+00 8.83974353e-02 
285 1324.30 5.88654417e+00 8.82981625e-02 
284 1325.79 5.79533423e+00 8.69300134e-02 
283 1327.28 5.73395895e+00 8.60093842e-02 
282 1328.76 5.64406760e+00 8.46610139e-02 
281 1330.25 5.60818704e+00 8.41228057e-02 
280 1331.73 5.55562028e+00 8.33343043e-02 
279 1333.21 5.55189041e+00 8.32783562e-02 
278 1334.69 5.51944785e+00 8.27917178e-02 
277 1336.17 5.45822589e+00 8.18733884e-02 
276 1337.65 5.41378028e+00 8.12067042e-02 
275 1339.12 5.35656383e+00 8.03484574e-02 
274 1340.60 5.29759629e+00 7.94639444e-02 
273 1342.07 5.25349514e+00 7.88024270e-02 
272 1343.55 5.12627779e+00 7.68941668e-02 
271 1345.02 4.87253692e+00 7.30880539e-02 
270 1346.49 4.70933797e+00 7.06400696e-02 
269 1347.96 4.54653016e+00 6.81979524e-02 
268 1349.43 4.33237556e+00 6.49856335e-02 
267 1350.89 4.09610292e+00 6.14415439e-02 
266 1352.36 3.79960733e+00 5.69941099e-02 
265 1353.82 3.57389982e+00 5.36084973e-02 
264 1355.29 3.39547495e+00 5.09321243e-02 
263 1356.75 3.19908490e+00 4.79862735e-02 
262 1358.21 2.82104335e+00 4.23156503e-02 
261 1359.67 2.52307279e+00 3.78460919e-02 
260 1361.13 2.36304842e+00 3.54457263e-02 
259 1362.59 2.27785227e+00 3.41677840e-02 
258 1364.04 2.42420270e+00 3.63630405e-02 
257 1365.50 2.44290275e+00 3.66435412e-02 
256 1366.95 2.49161627e+00 3.73742440e-02 
255 1368.41 2.42506820e+00 3.63760229e-02 
254 1369.86 2.43439152e+00 3.65158728e-02 
253 1371.31 2.54061094e+00 3.81091641e-02 
252 1372.76 2.53482524e+00 3.80223786e-02 
251 1374.21 2.60701936e+00 3.91052904e-02 
250 1375.65 2.49671412e+00 3.74507118e-02 
249 1377.10 2.22546299e+00 3.33819448e-02 
248 1378.55 1.92387167e+00 2.88580751e-02 
247 1379.99 1.62057787e+00 2.43086681e-02 
246 1381.43 1.55212502e+00 2.32818753e-02 
245 1382.87 1.66359839e+00 2.49539759e-02 
244 1384.32 1.79140592e+00 2.68710888e-02 
243 1385.75 1.93808052e+00 2.90712078e-02 
242 1387.19 2.17967583e+00 3.26951374e-02 
241 1388.63 2.24699126e+00 3.37048689e-02 
240 1390.07 2.29450881e+00 3.44176321e-02 
239 1391.50 2.24161150e+00 3.36241725e-02 
238 1392.94 1.97313088e+00 2.95969632e-02 
237 1394.37 2.04890414e+00 3.07335621e-02 
236 1395.80 2.20504397e+00 3.30756596e-02 
235 1397.23 2.13224558e+00 3.19836837e-02 
234 1398.66 2.28460038e+00 3.42690057e-02 
233 1400.09 2.37180832e+00 3.55771248e-02 
232 1401.52 2.25337002e+00 3.38005503e-02 
231 1402.94 2.42250473e+00 3.63375710e-02 
230 1404.37 2.50448693e+00 3.75673040e-02 
229 1405.79 2.42412984e+00 3.63619476e-02 
228 1407.22 2.50506445e+00 3.75759668e-02 
227 1408.64 2.65677112e+00 3.98515668e-02 
226 1410.06 2.78949738e+00 4.18424607e-02 
225 1411.48 2.80612689e+00 4.20919033e-02 
224 1412.90 2.92675303e+00 4.39012955e-02 
223 1414.32 2.97719166e+00 4.46578749e-02 
222 1415.73 2.96129717e+00 4.44194576e-02 
221 1417.15 3.03411570e+00 4.55117356e-02 
220 1418.56 3.12152006e+00 4.68228009e-02 
219 1419.98 3.06444897e+00 4.59667346e-02 
218 1421.39 3.14623915e+00 4.71935873e-02 
217 1422.80 3.24739299e+00 4.87108948e-02 
216 1424.21 3.27453260e+00 4.91179889e-02 
215 1425.62 3.28655116e+00 4.92982675e-02 
214 1427.03 3.34142352e+00 5.01213529e-02 
213 1428.44 3.17119028e+00 4.75678542e-02 
212 1429.84 3.04083641e+00 4.56125462e-02 
211 1431.25 2.99845293e+00 4.49767940e-02 
210 1432.65 2.98871673e+00 4.48307510e-02 
209 1434.06 3.05302326e+00 4.57953488e-02 
208 1435.46 3.16754502e+00 4.75131752e-02 
207 1436.86 3.17875833e+00 4.76813749e-02 
206 1438.26 3.21379896e+00 4.82069844e-02 
205 1439.66 3.21708524e+00 4.82562786e-02 
204 1441.05 3.30933099e+00 4.96399649e-02 
203 1442.45 3.23895526e+00 4.85843288e-02 
202 1443.85 3.27261239e+00 4.90891858e-02 
201 1445.24 3.33425111e+00 5.00137667e-02 
200 1446.64 3.38866069e+00 5.08299104e-02 
199 1448.03 3.36710870e+00 5.05066305e-02 
198 1449.42 3.42854010e+00 5.14281015e-02 
197 1450.81 3.39639089e+00 5.09458633e-02 
196 1452.20 3.42612365e+00 5.13918548e-02 
195 1453.59 3.53848154e+00 5.30772232e-02 
194 1454.97 3.64321013e+00 5.46481520e-02 
193 1456.36 3.64603004e+00 5.46904505e-02 
192 1457.75 3.69916756e+00 5.54875134e-02 
191 1459.13 3.66030609e+00 5.49045913e-02 
190 1460.51 3.64639100e+00 5.46958650e-02 
189 1461.90 3.53060834e+00 5.29591251e-02 
188 1463.28 3.50090737e+00 5.25136106e-02 
187 1464.66 3.44269769e+00 5.16404654e-02 
186 1466.04 3.46935781e+00 5.20403672e-02 
185 1467.41 3.38815286e+00 5.08222930e-02 
184 1468.79 3.36801681e+00 5.05202522e-02 
183 1470.17 3.31169322e+00 4.96753983e-02 
182 1471.54 3.33011977e+00 4.99517966e-02 
181 1472.92 3.34802298e+00 5.02203447e-02 
180 1474.29 3.41900493e+00 5.12850739e-02 
179 1475.66 3.41299610e+00 5.11949415e-02 
178 1477.03 3.38136323e+00 5.07204485e-02 
177 1478.40 3.34328040e+00 5.01492060e-02 
176 1479.77 3.37626038e+00 5.06439056e-02 
175 1481.14 3.34730412e+00 5.02095619e-02 
174 1482.51 3.42277515e+00 5.13416273e-02 
173 1483.87 3.40511092e+00 5.10766638e-02 
172 1485.24 3.38450813e+00 5.07676219e-02 
171 1486.60 3.31648753e+00 4.97473130e-02 
170 1487.96 3.35112316e+00 5.02668474e-02 
169 1489.32 3.31791512e+00 4.97687268e-02 
168 1490.69 3.43569560e+00 5.15354340e-02 
167 1492.04 3.41110527e+00 5.11665790e-02 
166 1493.40 3.43972585e+00 5.15958878e-02 
165 1494.76 3.41490420e+00 5.12235631e-02 
164 1496.12 3.43546520e+00 5.15319780e-02 
163 1497.47 3.38446779e+00 5.07670168e-02 
162 1498.83 3.43249745e+00 5.14874618e-02 
161 1500.18 3.28890876e+00 4.93336315e-02 
160 1501.53 3.24633482e+00 4.86950223e-02 
159 1502.89 3.15785308e+00 4.73677962e-02 
158 1504.24 3.18465252e+00 4.77697878e-02 
157 1505.59 3.20927950e+00 4.81391925e-02 
156 1506.93 3.29843790e+00 4.94765685e-02 
155 1508.28 3.31972977e+00 4.97959466e-02 
154 1509.63 3.35162181e+00 5.02743272e-02 
153 1510.97 3.30842525e+00 4.96263788e-02 
152 1512.32 3.34129226e+00 5.01193839e-02 
151 1513.66 3.27572639e+00 4.91358958e-02 
150 1515.00 3.31125493e+00 4.96688240e-02 
149 1516.34 3.26275418e+00 4.89413127e-02 
148 1517.69 3.26839917e+00 4.90259876e-02 
147 1519.02 3.21582715e+00 4.82374073e-02 
146 1520.36 3.23905531e+00 4.85858297e-02 
145 1521.70 3.20757668e+00 4.81136502e-02 
144 1523.04 3.25713881e+00 4.88570822e-02 
143 1524.37 3.21724183e+00 4.82586275e-02 
142 1525.71 3.25733239e+00 4.88599858e-02 
141 1527.04 3.19844139e+00 4.79766209e-02 
140 1528.37 3.23239364e+00 4.84859046e-02 
139 1529.70 3.17005085e+00 4.75507627e-02 
138 1531.03 3.21068075e+00 4.81602113e-02 
137 1532.36 3.17471403e+00 4.76207104e-02 
136 1533.69 3.19815904e+00 4.79723855e-02 
135 1535.02 3.13276316e+00 4.69914474e-02 
134 1536.34 3.17078877e+00 4.75618315e-02 
133 1537.67 3.10302861e+00 4.65454291e-02 
132 1538.99 3.13633751e+00 4.70450626e-02 
131 1540.31 3.07881641e+00 4.61822461e-02 
130 1541.64 3.11769961e+00 4.67654941e-02 
129 1542.96 3.08156889e+00 4.62235333e-02 
128 1544.28 3.11141763e+00 4.66712644e-02 
127 1545.60 3.05226186e+00 4.57839279e-02 
126 1546.91 3.08055086e+00 4.62082628e-02 
125 1548.23 3.01747202e+00 4.52620803e-02 
124 1549.55 3.05900353e+00 4.58850529e-02 
123 1550.86 3.01094631e+00 4.51641946e-02 
122 1552.18 3.04012682e+00 4.56019023e-02 
121 1553.49 2.98332543e+00 4.47498814e-02 
120 1554.80 3.01302536e+00 4.51953804e-02 
119 1556.11 2.94160679e+00 4.41241018e-02 
118 1557.42 2.96415746e+00 4.44623619e-02 
117 1558.73 2.90126001e+00 4.35189002e-02 
116 1560.04 2.93171096e+00 4.39756644e-02 
115 1561.34 2.86315856e+00 4.29473785e-02 
114 1562.65 2.89427442e+00 4.34141164e-02 
113 1563.95 2.81697831e+00 4.22546746e-02 
112 1565.26 2.87357110e+00 4.31035665e-02 
111 1566.56 2.77963495e+00 4.16945242e-02 
110 1567.86 2.79756509e+00 4.19634763e-02 
109 1569.16 2.71281044e+00 4.06921566e-02 
108 1570.46 2.69740673e+00 4.04611009e-02 
107 1571.76 2.62998742e+00 3.94498113e-02 
106 1573.05 2.61747950e+00 3.92621926e-02 
105 1574.35 2.54996003e+00 3.82494005e-02 
104 1575.64 2.58106557e+00 3.87159835e-02 
103 1576.94 2.54526126e+00 3.81789189e-02 
102 1578.23 2.59084069e+00 3.88626103e-02 
101 1579.52 2.55253980e+00 3.82880970e-02 
100 1580.81 2.61591523e+00 3.92387284e-02 
99 1582.10 2.57447854e+00 3.86171780e-02 
98 1583.39 2.62768396e+00 3.94152594e-02 
97 1584.68 2.56628629e+00 3.84942943e-02 
96 1585.97 2.56203656e+00 3.84305484e-02 
95 1587.25 2.47500282e+00 3.71250424e-02 
94 1588.54 2.48926259e+00 3.73389389e-02 
93 1589.82 2.44591389e+00 3.66887084e-02 
92 1591.10 2.52384072e+00 3.78576108e-02 
91 1592.38 2.47864454e+00 3.71796680e-02 
90 1593.66 2.51802245e+00 3.77703367e-02 
89 1594.94 2.43827547e+00 3.65741321e-02 
88 1596.22 2.45785780e+00 3.68678670e-02 
87 1597.50 2.37767263e+00 3.56650894e-02 
86 1598.77 2.39013755e+00 3.58520633e-02 
85 1600.05 2.30835465e+00 3.46253197e-02 
84 1601.32 2.33177513e+00 3.49766269e-02 
83 1602.59 2.25804803e+00 3.38707204e-02 
82 1603.86 2.31474438e+00 3.47211657e-02 
81 1605.13 2.22152438e+00 3.33228656e-02 
80 1606.40 2.28214989e+00 3.42322484e-02 
79 1607.67 2.18637063e+00 3.27955594e-02 
78 1608.94 2.22911904e+00 3.34367856e-02 
77 1610.20 2.17111018e+00 3.25666526e-02 
76 1611.47 2.21969814e+00 3.32954721e-02 
75 1612.73 2.17592589e+00 3.26388883e-02 
74 1614.00 2.21671406e+00 3.32507109e-02 
73 1615.26 2.15110084e+00 3.22665125e-02 
72 1616.52 2.16350728e+00 3.24526092e-02 
71 1617.78 2.08664285e+00 3.12996427e-02 
70 1619.03 2.13100529e+00 3.19650793e-02 
69 1620.29 2.08138887e+00 3.12208330e-02 
68 1621.55 2.12958306e+00 3.19437458e-02 
67 1622.80 2.07776406e+00 3.11664609e-02 
66 1624.06 2.14342006e+00 3.21513010e-02 
65 1625.31 2.06249030e+00 3.09373545e-02 
64 1626.56 2.11915334e+00 3.17873001e-02 
63 1627.81 2.03533478e+00 3.05300217e-02 
62 1629.06 2.04548231e+00 3.06822347e-02 
61 1630.31 1.96534355e+00 2.94801533e-02 
60 1631.56 1.97431356e+00 2.96147034e-02 
59 1632.80 1.90273417e+00 2.85410126e-02 
58 1634.05 1.93683451e+00 2.90525176e-02 
57 1635.29 1.84781594e+00 2.77172391e-02 
56 1636.53 1.87245879e+00 2.80868819e-02 
55 1637.77 1.77869243e+00 2.66803865e-02 
54 1639.01 1.79983997e+00 2.69975995e-02 
53 1640.25 1.74375969e+00 2.61563954e-02 
52 1641.49 1.75071985e+00 2.62607978e-02 
51 1642.73 1.69298652e+00 2.53947978e-02 
