% C0 (TOA Count Rate, /ms) for 4STAR NIR spectrometer (512 channels) derived from 20151104starsun.mat and recorded on 2015-11-06 22:44:20.
% Adjusted for non-linearity, but not for FORJ or temperature. Data outside 3.0x the STD of 500 nm Langley residuals were screened out.
Pix Wavelength C0 C0err
511 949.79 2.98472694e+00 -1.00000000e+00 
510 949.79 2.86564184e+00 -1.00000000e+00 
509 951.68 3.19526776e+00 -1.00000000e+00 
508 953.57 3.30309928e+00 -1.00000000e+00 
507 955.46 3.73058508e+00 -1.00000000e+00 
506 957.34 3.89633509e+00 -1.00000000e+00 
505 959.22 4.44737243e+00 -1.00000000e+00 
504 961.10 4.70675112e+00 -1.00000000e+00 
503 962.98 5.34572477e+00 -1.00000000e+00 
502 964.85 5.65223318e+00 -1.00000000e+00 
501 966.72 6.47816796e+00 -1.00000000e+00 
500 968.59 6.86131711e+00 -1.00000000e+00 
499 970.45 7.36679745e+00 -1.00000000e+00 
498 972.32 7.23746548e+00 -1.00000000e+00 
497 974.18 7.50247287e+00 -1.00000000e+00 
496 976.04 7.49305747e+00 -1.00000000e+00 
495 977.89 8.02160652e+00 -1.00000000e+00 
494 979.74 8.18108835e+00 -1.00000000e+00 
493 981.59 8.69346112e+00 -1.00000000e+00 
492 983.44 8.79715421e+00 -1.00000000e+00 
491 985.29 9.21591444e+00 -1.00000000e+00 
490 987.13 9.14880864e+00 -1.00000000e+00 
489 988.97 9.46427659e+00 -1.00000000e+00 
488 990.81 9.30669377e+00 -1.00000000e+00 
487 992.65 9.51091987e+00 -1.00000000e+00 
486 994.48 9.33445587e+00 -1.00000000e+00 
485 996.31 9.52728358e+00 -1.00000000e+00 
484 998.14 9.27375136e+00 -1.00000000e+00 
483 999.97 9.42356961e+00 -1.00000000e+00 
482 1001.79 9.14816011e+00 -1.00000000e+00 
481 1003.62 9.23185028e+00 -1.00000000e+00 
480 1005.44 9.03023766e+00 -1.00000000e+00 
479 1007.25 9.29140237e+00 -1.00000000e+00 
478 1009.07 9.07690305e+00 -1.00000000e+00 
477 1010.88 9.23479902e+00 -1.00000000e+00 
476 1012.69 8.97674491e+00 -1.00000000e+00 
475 1014.50 9.08461993e+00 -1.00000000e+00 
474 1016.31 8.85034571e+00 -1.00000000e+00 
473 1018.11 8.98579067e+00 -1.00000000e+00 
472 1019.91 8.72566780e+00 -1.00000000e+00 
471 1021.71 8.87491606e+00 -1.00000000e+00 
470 1023.51 8.63414453e+00 -1.00000000e+00 
469 1025.30 8.82816841e+00 -1.00000000e+00 
468 1027.09 8.71494248e+00 -1.00000000e+00 
467 1028.88 8.87884787e+00 -1.00000000e+00 
466 1030.67 8.73661743e+00 -1.00000000e+00 
465 1032.46 8.93152620e+00 -1.00000000e+00 
464 1034.24 8.76924199e+00 -1.00000000e+00 
463 1036.02 8.97263087e+00 -1.00000000e+00 
462 1037.80 8.84978373e+00 -1.00000000e+00 
461 1039.58 9.07331012e+00 -1.00000000e+00 
460 1041.35 8.91488350e+00 -1.00000000e+00 
459 1043.12 9.08003976e+00 -1.00000000e+00 
458 1044.89 8.99075152e+00 -1.00000000e+00 
457 1046.66 9.21728956e+00 -1.00000000e+00 
456 1048.43 9.14054677e+00 -1.00000000e+00 
455 1050.19 9.37965681e+00 -1.00000000e+00 
454 1051.95 9.24716787e+00 -1.00000000e+00 
453 1053.71 9.50300568e+00 -1.00000000e+00 
452 1055.47 9.33030906e+00 -1.00000000e+00 
451 1057.23 9.46390452e+00 -1.00000000e+00 
450 1058.98 9.32882398e+00 -1.00000000e+00 
449 1060.73 9.53184090e+00 -1.00000000e+00 
448 1062.48 9.33731864e+00 -1.00000000e+00 
447 1064.23 9.48566420e+00 -1.00000000e+00 
446 1065.97 9.19735768e+00 -1.00000000e+00 
445 1067.71 9.25023408e+00 -1.00000000e+00 
444 1069.46 8.99933401e+00 -1.00000000e+00 
443 1071.19 9.06696780e+00 -1.00000000e+00 
442 1072.93 8.85876946e+00 -1.00000000e+00 
441 1074.67 8.89317084e+00 -1.00000000e+00 
440 1076.40 8.67389834e+00 -1.00000000e+00 
439 1078.13 8.69807440e+00 -1.00000000e+00 
438 1079.86 8.42785867e+00 -1.00000000e+00 
437 1081.58 8.45994256e+00 -1.00000000e+00 
436 1083.31 8.29185098e+00 -1.00000000e+00 
435 1085.03 8.45851785e+00 -1.00000000e+00 
434 1086.75 8.32530392e+00 -1.00000000e+00 
433 1088.47 8.43435344e+00 -1.00000000e+00 
432 1090.19 8.21395960e+00 -1.00000000e+00 
431 1091.90 8.23114478e+00 -1.00000000e+00 
430 1093.61 7.99115334e+00 -1.00000000e+00 
429 1095.33 8.06053628e+00 -1.00000000e+00 
428 1097.03 7.87196745e+00 -1.00000000e+00 
427 1098.74 7.89397692e+00 -1.00000000e+00 
426 1100.45 7.72262506e+00 -1.00000000e+00 
425 1102.15 7.78568916e+00 -1.00000000e+00 
424 1103.85 7.59762036e+00 -1.00000000e+00 
423 1105.55 7.62239005e+00 -1.00000000e+00 
422 1107.25 7.32770977e+00 -1.00000000e+00 
421 1108.94 7.12633928e+00 -1.00000000e+00 
420 1110.64 6.34089011e+00 -1.00000000e+00 
419 1112.33 5.43882322e+00 -1.00000000e+00 
418 1114.02 4.26424965e+00 -1.00000000e+00 
417 1115.70 3.62445000e+00 -1.00000000e+00 
416 1117.39 3.10559548e+00 -1.00000000e+00 
415 1119.07 2.84954208e+00 -1.00000000e+00 
414 1120.76 2.01075033e+00 -1.00000000e+00 
413 1122.44 2.45336371e+00 -1.00000000e+00 
412 1124.12 1.88192506e+00 -1.00000000e+00 
411 1125.79 2.07948920e+00 -1.00000000e+00 
410 1127.47 2.64539997e+00 -1.00000000e+00 
409 1129.14 3.28534271e+00 -1.00000000e+00 
408 1130.81 3.02487808e+00 -1.00000000e+00 
407 1132.48 2.97179888e+00 -1.00000000e+00 
406 1134.15 2.96606150e+00 -1.00000000e+00 
405 1135.81 3.99024669e+00 -1.00000000e+00 
404 1137.48 4.98136376e+00 -1.00000000e+00 
403 1139.14 5.40558454e+00 -1.00000000e+00 
402 1140.80 4.59611548e+00 -1.00000000e+00 
401 1142.46 3.67515948e+00 -1.00000000e+00 
400 1144.12 3.08050219e+00 -1.00000000e+00 
399 1145.77 3.06000059e+00 -1.00000000e+00 
398 1147.43 3.67729298e+00 -1.00000000e+00 
397 1149.08 4.42266114e+00 -1.00000000e+00 
396 1150.73 4.38399565e+00 -1.00000000e+00 
395 1152.38 4.87414020e+00 -1.00000000e+00 
394 1154.02 5.31203641e+00 -1.00000000e+00 
393 1155.67 6.06756866e+00 -1.00000000e+00 
392 1157.31 6.42060066e+00 -1.00000000e+00 
391 1158.95 6.89917978e+00 -1.00000000e+00 
390 1160.59 7.24367559e+00 -1.00000000e+00 
389 1162.23 7.67033593e+00 -1.00000000e+00 
388 1163.87 7.79758560e+00 -1.00000000e+00 
387 1165.50 7.91721896e+00 -1.00000000e+00 
386 1167.13 8.01453888e+00 -1.00000000e+00 
385 1168.76 8.36268207e+00 -1.00000000e+00 
384 1170.39 8.12810177e+00 -1.00000000e+00 
383 1172.02 8.18467027e+00 -1.00000000e+00 
382 1173.65 7.97476436e+00 -1.00000000e+00 
381 1175.27 8.08489309e+00 -1.00000000e+00 
380 1176.90 8.17197123e+00 -1.00000000e+00 
379 1178.52 7.83902718e+00 -1.00000000e+00 
378 1180.14 7.68546668e+00 -1.00000000e+00 
377 1181.75 7.59255520e+00 -1.00000000e+00 
376 1183.37 7.46961162e+00 -1.00000000e+00 
375 1184.99 7.47619778e+00 -1.00000000e+00 
374 1186.60 7.46889114e+00 -1.00000000e+00 
373 1188.21 7.50354195e+00 -1.00000000e+00 
372 1189.82 7.65273150e+00 -1.00000000e+00 
371 1191.43 7.95543389e+00 -1.00000000e+00 
370 1193.04 7.87373417e+00 -1.00000000e+00 
369 1194.64 7.77370524e+00 -1.00000000e+00 
368 1196.24 7.51524472e+00 -1.00000000e+00 
367 1197.85 7.54937737e+00 -1.00000000e+00 
366 1199.45 7.33786547e+00 -1.00000000e+00 
365 1201.05 7.44691529e+00 -1.00000000e+00 
364 1202.64 7.45789708e+00 -1.00000000e+00 
363 1204.24 7.53831887e+00 -1.00000000e+00 
362 1205.83 7.66855507e+00 -1.00000000e+00 
361 1207.43 7.67279091e+00 -1.00000000e+00 
360 1209.02 7.59761197e+00 -1.00000000e+00 
359 1210.61 7.72251195e+00 -1.00000000e+00 
358 1212.19 7.72775178e+00 -1.00000000e+00 
357 1213.78 8.01535948e+00 -1.00000000e+00 
356 1215.37 8.02665902e+00 -1.00000000e+00 
355 1216.95 8.22749461e+00 -1.00000000e+00 
354 1218.53 8.20328860e+00 -1.00000000e+00 
353 1220.11 8.27615774e+00 -1.00000000e+00 
352 1221.69 8.26705001e+00 -1.00000000e+00 
351 1223.27 8.33997764e+00 -1.00000000e+00 
350 1224.84 8.42427117e+00 -1.00000000e+00 
349 1226.42 8.56697236e+00 -1.00000000e+00 
348 1227.99 8.60463915e+00 -1.00000000e+00 
347 1229.56 8.80055660e+00 -1.00000000e+00 
346 1231.13 8.77366409e+00 -1.00000000e+00 
345 1232.70 8.89059388e+00 -1.00000000e+00 
344 1234.27 8.87768800e+00 -1.00000000e+00 
343 1235.84 8.91389574e+00 -1.00000000e+00 
342 1237.40 8.86255688e+00 -1.00000000e+00 
341 1238.96 8.83863839e+00 -1.00000000e+00 
340 1240.52 8.65301418e+00 -1.00000000e+00 
339 1242.08 8.75410670e+00 -1.00000000e+00 
338 1243.64 8.72614214e+00 -1.00000000e+00 
337 1245.20 8.77956670e+00 -1.00000000e+00 
336 1246.75 8.74325947e+00 -1.00000000e+00 
335 1248.31 8.79681401e+00 -1.00000000e+00 
334 1249.86 8.73934808e+00 -1.00000000e+00 
333 1251.41 8.79496930e+00 -1.00000000e+00 
332 1252.96 8.70687935e+00 -1.00000000e+00 
331 1254.51 8.69598303e+00 -1.00000000e+00 
330 1256.06 8.55742536e+00 -1.00000000e+00 
329 1257.61 8.46277668e+00 -1.00000000e+00 
328 1259.15 8.24092748e+00 -1.00000000e+00 
327 1260.69 8.10294407e+00 -1.00000000e+00 
326 1262.23 7.90102420e+00 -1.00000000e+00 
325 1263.77 7.81589600e+00 -1.00000000e+00 
324 1265.31 7.42202878e+00 -1.00000000e+00 
323 1266.85 7.42149614e+00 -1.00000000e+00 
322 1268.39 7.49399239e+00 -1.00000000e+00 
321 1269.92 7.70712520e+00 -1.00000000e+00 
320 1271.46 8.15953398e+00 -1.00000000e+00 
319 1272.99 8.31554344e+00 -1.00000000e+00 
318 1274.52 8.32064434e+00 -1.00000000e+00 
317 1276.05 8.41181274e+00 -1.00000000e+00 
316 1277.58 8.24431503e+00 -1.00000000e+00 
315 1279.10 8.14071512e+00 -1.00000000e+00 
314 1280.63 8.11241630e+00 -1.00000000e+00 
313 1282.15 8.14380719e+00 -1.00000000e+00 
312 1283.68 8.24529748e+00 -1.00000000e+00 
311 1285.20 8.37936236e+00 -1.00000000e+00 
310 1286.72 8.32044403e+00 -1.00000000e+00 
309 1288.24 8.27532969e+00 -1.00000000e+00 
308 1289.75 8.15378218e+00 -1.00000000e+00 
307 1291.27 8.17775824e+00 -1.00000000e+00 
306 1292.78 8.10170677e+00 -1.00000000e+00 
305 1294.30 8.03224824e+00 -1.00000000e+00 
304 1295.81 7.88158414e+00 -1.00000000e+00 
303 1297.32 7.76327533e+00 -1.00000000e+00 
302 1298.83 7.67061479e+00 -1.00000000e+00 
301 1300.34 7.40982770e+00 -1.00000000e+00 
300 1301.85 7.23803672e+00 -1.00000000e+00 
299 1303.35 7.03117104e+00 -1.00000000e+00 
298 1304.86 6.88422404e+00 -1.00000000e+00 
297 1306.36 6.83820029e+00 -1.00000000e+00 
296 1307.86 6.73917612e+00 -1.00000000e+00 
295 1309.36 6.56703402e+00 -1.00000000e+00 
294 1310.86 6.23279751e+00 -1.00000000e+00 
293 1312.36 6.15542605e+00 -1.00000000e+00 
292 1313.86 6.09353790e+00 -1.00000000e+00 
291 1315.36 6.03687424e+00 -1.00000000e+00 
290 1316.85 5.90432885e+00 -1.00000000e+00 
289 1318.34 5.83342759e+00 -1.00000000e+00 
288 1319.84 5.56254702e+00 -1.00000000e+00 
287 1321.33 5.61303589e+00 -1.00000000e+00 
286 1322.82 5.64091920e+00 -1.00000000e+00 
285 1324.30 5.44894898e+00 -1.00000000e+00 
284 1325.79 5.09384378e+00 -1.00000000e+00 
283 1327.28 4.55582014e+00 -1.00000000e+00 
282 1328.76 3.91474394e+00 -1.00000000e+00 
281 1330.25 3.68636476e+00 -1.00000000e+00 
280 1331.73 3.68675147e+00 -1.00000000e+00 
279 1333.21 3.85423772e+00 -1.00000000e+00 
278 1334.69 4.02681733e+00 -1.00000000e+00 
277 1336.17 4.10969302e+00 -1.00000000e+00 
276 1337.65 3.87254654e+00 -1.00000000e+00 
275 1339.12 3.83859787e+00 -1.00000000e+00 
274 1340.60 3.43638744e+00 -1.00000000e+00 
273 1342.07 2.96444382e+00 -1.00000000e+00 
272 1343.55 2.36668927e+00 -1.00000000e+00 
271 1345.02 1.51582380e+00 -1.00000000e+00 
270 1346.49 4.29080111e-01 -1.00000000e+00 
269 1347.96 5.35412469e-01 -1.00000000e+00 
268 1349.43 1.92505184e-01 -1.00000000e+00 
267 1350.89 9.39828575e-02 -1.00000000e+00 
266 1352.36 6.65543839e-02 -1.00000000e+00 
265 1353.82 2.67873059e-02 -1.00000000e+00 
264 1355.29 2.32524043e-01 -1.00000000e+00 
263 1356.75 2.00604912e-02 -1.00000000e+00 
262 1358.21 4.39614228e-02 -1.00000000e+00 
261 1359.67 2.01549778e-01 -1.00000000e+00 
260 1361.13 1.44717376e-01 -1.00000000e+00 
259 1362.59 1.28769350e-01 -1.00000000e+00 
258 1364.04 1.53397630e-02 -1.00000000e+00 
257 1365.50 2.26502686e-02 -1.00000000e+00 
256 1366.95 2.76234547e-01 -1.00000000e+00 
255 1368.41 1.52283917e-01 -1.00000000e+00 
254 1369.86 4.53916942e-02 -1.00000000e+00 
253 1371.31 1.23883763e-02 -1.00000000e+00 
252 1372.76 3.75372456e-01 -1.00000000e+00 
251 1374.21 4.82103434e-02 -1.00000000e+00 
250 1375.65 1.19628856e-01 -1.00000000e+00 
249 1377.10 8.96750830e-02 -1.00000000e+00 
248 1378.55 1.92284013e-01 -1.00000000e+00 
247 1379.99 1.58482532e-02 -1.00000000e+00 
246 1381.43 1.94268596e-01 -1.00000000e+00 
245 1382.87 7.94543769e-03 -1.00000000e+00 
244 1384.32 3.51415471e-02 -1.00000000e+00 
243 1385.75 1.28260115e-02 -1.00000000e+00 
242 1387.19 1.48597978e-02 -1.00000000e+00 
241 1388.63 1.93555800e-01 -1.00000000e+00 
240 1390.07 1.72349168e-02 -1.00000000e+00 
239 1391.50 1.38608092e-02 -1.00000000e+00 
238 1392.94 3.78524114e-01 -1.00000000e+00 
237 1394.37 1.03921534e-02 -1.00000000e+00 
236 1395.80 1.87296067e-02 -1.00000000e+00 
235 1397.23 1.43942237e-02 -1.00000000e+00 
234 1398.66 4.40864576e-01 -1.00000000e+00 
233 1400.09 1.36664565e-02 -1.00000000e+00 
232 1401.52 2.36679232e-02 -1.00000000e+00 
231 1402.94 9.03897314e-03 -1.00000000e+00 
230 1404.37 1.64219181e-01 -1.00000000e+00 
229 1405.79 1.14801651e-02 -1.00000000e+00 
228 1407.22 1.43297259e-01 -1.00000000e+00 
227 1408.64 1.33116676e-02 -1.00000000e+00 
226 1410.06 1.59184208e-01 -1.00000000e+00 
225 1411.48 2.68712198e-02 -1.00000000e+00 
224 1412.90 2.82425683e-01 -1.00000000e+00 
223 1414.32 8.49245687e-02 -1.00000000e+00 
222 1415.73 5.10480925e-02 -1.00000000e+00 
221 1417.15 5.54083718e-02 -1.00000000e+00 
220 1418.56 5.58143289e-02 -1.00000000e+00 
219 1419.98 8.41946237e-02 -1.00000000e+00 
218 1421.39 1.44494857e-01 -1.00000000e+00 
217 1422.80 2.37316444e-01 -1.00000000e+00 
216 1424.21 1.88711403e-01 -1.00000000e+00 
215 1425.62 2.63218564e-01 -1.00000000e+00 
214 1427.03 2.18504998e-01 -1.00000000e+00 
213 1428.44 2.34013260e-01 -1.00000000e+00 
212 1429.84 1.97332353e-01 -1.00000000e+00 
211 1431.25 6.00012116e-01 -1.00000000e+00 
210 1432.65 2.43392947e-01 -1.00000000e+00 
209 1434.06 1.58376151e-01 -1.00000000e+00 
208 1435.46 3.08317341e-01 -1.00000000e+00 
207 1436.86 4.50488260e-01 -1.00000000e+00 
206 1438.26 4.62451599e-01 -1.00000000e+00 
205 1439.66 1.72123401e-01 -1.00000000e+00 
204 1441.05 1.90223822e-01 -1.00000000e+00 
203 1442.45 1.76507698e-01 -1.00000000e+00 
202 1443.85 6.11126254e-01 -1.00000000e+00 
201 1445.24 3.63111461e-01 -1.00000000e+00 
200 1446.64 4.47319993e-01 -1.00000000e+00 
199 1448.03 1.18719803e+00 -1.00000000e+00 
198 1449.42 4.01645478e-01 -1.00000000e+00 
197 1450.81 1.30843944e+00 -1.00000000e+00 
196 1452.20 7.56303879e-01 -1.00000000e+00 
195 1453.59 1.64567939e+00 -1.00000000e+00 
194 1454.97 1.74429995e+00 -1.00000000e+00 
193 1456.36 2.20907990e+00 -1.00000000e+00 
192 1457.75 2.16482892e+00 -1.00000000e+00 
191 1459.13 2.05682620e+00 -1.00000000e+00 
190 1460.51 1.97663473e+00 -1.00000000e+00 
189 1461.90 1.04578541e+00 -1.00000000e+00 
188 1463.28 1.75664436e+00 -1.00000000e+00 
187 1464.66 1.54997551e+00 -1.00000000e+00 
186 1466.04 1.42906253e+00 -1.00000000e+00 
185 1467.41 1.13407556e+00 -1.00000000e+00 
184 1468.79 3.54567385e-01 -1.00000000e+00 
183 1470.17 1.02286542e+00 -1.00000000e+00 
182 1471.54 5.81370278e-01 -1.00000000e+00 
181 1472.92 1.33371002e+00 -1.00000000e+00 
180 1474.29 1.51825661e+00 -1.00000000e+00 
179 1475.66 1.66562812e+00 -1.00000000e+00 
178 1477.03 1.28052704e+00 -1.00000000e+00 
177 1478.40 1.59833744e+00 -1.00000000e+00 
176 1479.77 1.78240002e+00 -1.00000000e+00 
175 1481.14 1.88851127e+00 -1.00000000e+00 
174 1482.51 2.05762514e+00 -1.00000000e+00 
173 1483.87 2.01115352e+00 -1.00000000e+00 
172 1485.24 1.95249030e+00 -1.00000000e+00 
171 1486.60 1.96632799e+00 -1.00000000e+00 
170 1487.96 2.18082345e+00 -1.00000000e+00 
169 1489.32 2.48243303e+00 -1.00000000e+00 
168 1490.69 2.80963021e+00 -1.00000000e+00 
167 1492.04 2.91891691e+00 -1.00000000e+00 
166 1493.40 2.99794468e+00 -1.00000000e+00 
165 1494.76 3.11652865e+00 -1.00000000e+00 
164 1496.12 3.25489391e+00 -1.00000000e+00 
163 1497.47 3.38594106e+00 -1.00000000e+00 
162 1498.83 3.60177794e+00 -1.00000000e+00 
161 1500.18 3.43186574e+00 -1.00000000e+00 
160 1501.53 3.29187660e+00 -1.00000000e+00 
159 1502.89 3.23062564e+00 -1.00000000e+00 
158 1504.24 3.31242324e+00 -1.00000000e+00 
157 1505.59 3.37798862e+00 -1.00000000e+00 
156 1506.93 3.66677512e+00 -1.00000000e+00 
155 1508.28 3.79161449e+00 -1.00000000e+00 
154 1509.63 3.81395763e+00 -1.00000000e+00 
153 1510.97 3.84316726e+00 -1.00000000e+00 
152 1512.32 3.97345327e+00 -1.00000000e+00 
151 1513.66 3.90297001e+00 -1.00000000e+00 
150 1515.00 3.93916407e+00 -1.00000000e+00 
149 1516.34 3.93989198e+00 -1.00000000e+00 
148 1517.69 3.98408417e+00 -1.00000000e+00 
147 1519.02 3.95697267e+00 -1.00000000e+00 
146 1520.36 4.04385363e+00 -1.00000000e+00 
145 1521.70 4.06608382e+00 -1.00000000e+00 
144 1523.04 4.14952618e+00 -1.00000000e+00 
143 1524.37 4.11472040e+00 -1.00000000e+00 
142 1525.71 4.15868455e+00 -1.00000000e+00 
141 1527.04 4.09546062e+00 -1.00000000e+00 
140 1528.37 4.14091344e+00 -1.00000000e+00 
139 1529.70 4.10559612e+00 -1.00000000e+00 
138 1531.03 4.17033871e+00 -1.00000000e+00 
137 1532.36 4.13721286e+00 -1.00000000e+00 
136 1533.69 4.18742024e+00 -1.00000000e+00 
135 1535.02 4.11077600e+00 -1.00000000e+00 
134 1536.34 4.13273050e+00 -1.00000000e+00 
133 1537.67 4.06575558e+00 -1.00000000e+00 
132 1538.99 4.12072545e+00 -1.00000000e+00 
131 1540.31 4.06156795e+00 -1.00000000e+00 
130 1541.64 4.10977051e+00 -1.00000000e+00 
129 1542.96 4.07674633e+00 -1.00000000e+00 
128 1544.28 4.11422629e+00 -1.00000000e+00 
127 1545.60 4.03569482e+00 -1.00000000e+00 
126 1546.91 4.09958879e+00 -1.00000000e+00 
125 1548.23 4.03685410e+00 -1.00000000e+00 
124 1549.55 4.07958568e+00 -1.00000000e+00 
123 1550.86 4.00834597e+00 -1.00000000e+00 
122 1552.18 4.02002578e+00 -1.00000000e+00 
121 1553.49 3.94577134e+00 -1.00000000e+00 
120 1554.80 3.97857869e+00 -1.00000000e+00 
119 1556.11 3.89401805e+00 -1.00000000e+00 
118 1557.42 3.94407695e+00 -1.00000000e+00 
117 1558.73 3.87057663e+00 -1.00000000e+00 
116 1560.04 3.89985773e+00 -1.00000000e+00 
115 1561.34 3.81617094e+00 -1.00000000e+00 
114 1562.65 3.86867550e+00 -1.00000000e+00 
113 1563.95 3.78211020e+00 -1.00000000e+00 
112 1565.26 3.83060126e+00 -1.00000000e+00 
111 1566.56 3.69128943e+00 -1.00000000e+00 
110 1567.86 3.66836841e+00 -1.00000000e+00 
109 1569.16 3.51493739e+00 -1.00000000e+00 
108 1570.46 3.48562049e+00 -1.00000000e+00 
107 1571.76 3.38244392e+00 -1.00000000e+00 
106 1573.05 3.38377894e+00 -1.00000000e+00 
105 1574.35 3.29975656e+00 -1.00000000e+00 
104 1575.64 3.34510744e+00 -1.00000000e+00 
103 1576.94 3.29778834e+00 -1.00000000e+00 
102 1578.23 3.36289564e+00 -1.00000000e+00 
101 1579.52 3.34751787e+00 -1.00000000e+00 
100 1580.81 3.42572375e+00 -1.00000000e+00 
99 1582.10 3.38366662e+00 -1.00000000e+00 
98 1583.39 3.46446723e+00 -1.00000000e+00 
97 1584.68 3.38556437e+00 -1.00000000e+00 
96 1585.97 3.38081731e+00 -1.00000000e+00 
95 1587.25 3.27940850e+00 -1.00000000e+00 
94 1588.54 3.30294139e+00 -1.00000000e+00 
93 1589.82 3.23033481e+00 -1.00000000e+00 
92 1591.10 3.33937304e+00 -1.00000000e+00 
91 1592.38 3.29393633e+00 -1.00000000e+00 
90 1593.66 3.34491419e+00 -1.00000000e+00 
89 1594.94 3.24858183e+00 -1.00000000e+00 
88 1596.22 3.25526572e+00 -1.00000000e+00 
87 1597.50 3.12813420e+00 -1.00000000e+00 
86 1598.77 3.10888057e+00 -1.00000000e+00 
85 1600.05 2.97914717e+00 -1.00000000e+00 
84 1601.32 2.99843476e+00 -1.00000000e+00 
83 1602.59 2.92220486e+00 -1.00000000e+00 
82 1603.86 3.00708573e+00 -1.00000000e+00 
81 1605.13 2.89519758e+00 -1.00000000e+00 
80 1606.40 2.95473721e+00 -1.00000000e+00 
79 1607.67 2.84069469e+00 -1.00000000e+00 
78 1608.94 2.88757199e+00 -1.00000000e+00 
77 1610.20 2.84942607e+00 -1.00000000e+00 
76 1611.47 2.93134787e+00 -1.00000000e+00 
75 1612.73 2.89589995e+00 -1.00000000e+00 
74 1614.00 2.97091904e+00 -1.00000000e+00 
73 1615.26 2.89323884e+00 -1.00000000e+00 
72 1616.52 2.92919202e+00 -1.00000000e+00 
71 1617.78 2.83078130e+00 -1.00000000e+00 
70 1619.03 2.86347247e+00 -1.00000000e+00 
69 1620.29 2.80276241e+00 -1.00000000e+00 
68 1621.55 2.86447882e+00 -1.00000000e+00 
67 1622.80 2.81357175e+00 -1.00000000e+00 
66 1624.06 2.87864006e+00 -1.00000000e+00 
65 1625.31 2.78073997e+00 -1.00000000e+00 
64 1626.56 2.83528612e+00 -1.00000000e+00 
63 1627.81 2.72827160e+00 -1.00000000e+00 
